green_channel,red_channel,ir_channel,Anomaly_ch0,Anomaly_ch1,Anomaly_ch2
24841,28374,16144,0,0,0
24781,28323,16061,0,0,0
24721,28272,15971,0,0,0
24664,28224,15883,0,0,0
24606,28174,15796,0,0,0
24543,28123,15706,0,0,0
24476,28076,15608,0,0,0
24404,28034,15504,0,0,0
24326,27983,15391,0,0,0
24245,27924,15273,0,0,0
24159,27864,15155,0,0,0
24071,27805,15042,0,0,0
23984,27746,14929,0,0,0
23897,27688,14811,0,0,0
23817,27635,14694,0,0,0
23748,27585,14587,0,0,0
23688,27535,14487,0,0,0
23633,27488,14388,0,0,0
23583,27446,14290,0,0,0
23532,27407,14198,0,0,0
23476,27368,14109,0,0,0
23419,27328,14014,0,0,0
23363,27286,13916,0,0,0
23307,27241,13825,0,0,0
23247,27193,13736,0,0,0
23178,27145,13641,0,0,0
23104,27092,13538,0,0,0
23032,27034,13437,0,0,0
22963,26974,13338,0,0,0
22892,26914,13236,0,0,0
22815,26855,13131,0,0,0
22733,26795,13023,0,0,0
22647,26733,12910,0,0,0
22559,26670,12793,0,0,0
22474,26611,12679,0,0,0
22400,26556,12572,0,0,0
22328,26501,12467,0,0,0
22257,26447,12361,0,0,0
22192,26396,12258,0,0,0
22133,26346,12164,0,0,0
22074,26299,12076,0,0,0
22011,26258,11990,0,0,0
21949,26219,11901,0,0,0
21887,26178,11804,0,0,0
21823,26137,11702,0,0,0
21758,26101,11598,0,0,0
21694,26060,11495,0,0,0
21627,26005,11389,0,0,0
21557,25945,11276,0,0,0
21485,25887,11157,0,0,0
21409,25827,11035,0,0,0
21325,25764,10910,0,0,0
21236,25698,10783,0,0,0
21147,25633,10657,0,0,0
21066,25572,10545,0,0,0
20996,25519,10453,0,0,0
20944,25476,10384,0,0,0
20918,25454,10351,0,0,0
20928,25459,10369,0,0,0
20983,25501,10451,0,0,0
21090,25588,10611,0,0,0
21262,25725,10862,0,0,0
21505,25913,11212,0,0,0
21818,26153,11657,0,0,0
22198,26446,12192,0,0,0
22643,26791,12823,0,0,0
23143,27179,13549,0,0,0
23679,27594,14347,0,0,0
24241,28029,15190,0,0,0
24823,28481,16061,0,0,0
25414,28935,16942,0,0,0
25991,29379,17810,0,0,0
26541,29805,18648,0,0,0
27058,30207,19442,0,0,0
27535,30576,20177,0,0,0
27968,30911,20841,0,0,0
28356,31212,21432,0,0,0
28691,31471,21946,0,0,0
28965,31681,22378,0,0,0
29181,31845,22726,0,0,0
29349,31970,22996,0,0,0
29472,32056,23203,0,0,0
29549,32109,23353,0,0,0
29583,32137,23442,0,0,0
29586,32143,23472,0,0,0
29566,32129,23459,0,0,0
29524,32095,23412,0,0,0
29460,32045,23334,0,0,0
29377,31985,23230,0,0,0
29289,31922,23113,0,0,0
29206,31858,22994,0,0,0
29127,31796,22874,0,0,0
29054,31738,22758,0,0,0
28988,31680,22653,0,0,0
28927,31627,22562,0,0,0
28875,31582,22482,0,0,0
28833,31547,22420,0,0,0
28800,31518,22375,0,0,0
28767,31490,22336,0,0,0
28734,31467,22295,0,0,0
28708,31452,22260,0,0,0
28691,31444,22241,0,0,0
28675,31436,22230,0,0,0
28648,31424,22206,0,0,0
28611,31403,22163,0,0,0
28568,31372,22105,0,0,0
28523,31333,22040,0,0,0
28472,31283,21962,0,0,0
28410,31224,21868,0,0,0
28339,31159,21760,0,0,0
28261,31094,21642,0,0,0
28177,31033,21515,0,0,0
28087,30970,21378,0,0,0
27994,30901,21236,0,0,0
27902,30831,21092,0,0,0
27811,30766,20949,0,0,0
27724,30706,20819,0,0,0
27645,30649,20706,0,0,0
27570,30590,20602,0,0,0
27492,30528,20501,0,0,0
27421,30469,20410,0,0,0
27361,30415,20333,0,0,0
27302,30364,20259,0,0,0
27245,30320,20186,0,0,0
27197,30283,20122,0,0,0
27160,30250,20063,0,0,0
27123,30224,20006,0,0,0
27084,30205,19950,0,0,0
27043,30186,19896,0,0,0
27005,30159,19846,0,0,0
26966,30128,19799,0,0,0
26930,30102,19754,0,0,0
26897,30082,19711,0,0,0
26863,30060,19666,0,0,0
26823,30034,19616,0,0,0
26778,30003,19560,0,0,0
26731,29968,19498,0,0,0
26680,29929,19428,0,0,0
26618,29884,19339,0,0,0
26547,29835,19234,0,0,0
26472,29781,19127,0,0,0
26396,29725,19022,0,0,0
26316,29669,18911,0,0,0
26233,29611,18794,0,0,0
26143,29546,18670,0,0,0
26050,29472,18540,0,0,0
25958,29398,18404,0,0,0
25864,29326,18262,0,0,0
25763,29248,18113,0,0,0
25656,29163,17956,0,0,0
25547,29073,17792,0,0,0
25433,28978,17622,0,0,0
25313,28878,17447,0,0,0
25182,28775,17260,0,0,0
25046,28673,17065,0,0,0
24914,28575,16876,0,0,0
24789,28476,16693,0,0,0
24662,28378,16511,0,0,0
24535,28286,16330,0,0,0
24409,28197,16153,0,0,0
24283,28109,15980,0,0,0
24159,28020,15812,0,0,0
24040,27935,15651,0,0,0
23927,27855,15496,0,0,0
23818,27779,15344,0,0,0
23713,27704,15192,0,0,0
23615,27630,15042,0,0,0
23524,27558,14904,0,0,0
23437,27487,14776,0,0,0
23347,27417,14645,0,0,0
23255,27350,14510,0,0,0
23170,27288,14382,0,0,0
23094,27228,14265,0,0,0
23019,27172,14156,0,0,0
22943,27120,14050,0,0,0
22869,27071,13948,0,0,0
22798,27020,13854,0,0,0
22727,26968,13762,0,0,0
22657,26918,13669,0,0,0
22587,26870,13577,0,0,0
22516,26821,13482,0,0,0
22451,26776,13390,0,0,0
22391,26739,13308,0,0,0
22340,26705,13241,0,0,0
22291,26668,13175,0,0,0
22237,26627,13099,0,0,0
22182,26588,13017,0,0,0
22136,26552,12937,0,0,0
22093,26516,12858,0,0,0
22044,26476,12774,0,0,0
21988,26432,12688,0,0,0
21931,26388,12601,0,0,0
21873,26345,12512,0,0,0
21814,26300,12421,0,0,0
21754,26250,12327,0,0,0
21691,26194,12234,0,0,0
21620,26135,12137,0,0,0
21544,26081,12036,0,0,0
21469,26031,11938,0,0,0
21395,25985,11846,0,0,0
21318,25936,11749,0,0,0
21235,25881,11639,0,0,0
21152,25823,11525,0,0,0
21073,25764,11411,0,0,0
20992,25702,11294,0,0,0
20910,25640,11175,0,0,0
20828,25578,11060,0,0,0
20740,25513,10944,0,0,0
20649,25448,10825,0,0,0
20559,25385,10703,0,0,0
20474,25322,10585,0,0,0
20391,25259,10472,0,0,0
20310,25197,10358,0,0,0
20230,25140,10244,0,0,0
20157,25091,10139,0,0,0
20093,25048,10042,0,0,0
20034,25007,9946,0,0,0
19973,24962,9849,0,0,0
19911,24917,9758,0,0,0
19850,24873,9672,0,0,0
19792,24832,9585,0,0,0
19735,24797,9499,0,0,0
19681,24760,9416,0,0,0
19626,24717,9331,0,0,0
19564,24669,9237,0,0,0
19494,24616,9131,0,0,0
19425,24560,9024,0,0,0
19360,24507,8924,0,0,0
19295,24458,8828,0,0,0
19226,24410,8729,0,0,0
19152,24359,8624,0,0,0
19075,24305,8514,0,0,0
18998,24252,8401,0,0,0
18920,24201,8290,0,0,0
18843,24145,8182,0,0,0
18757,24081,8065,0,0,0
18659,24014,7937,0,0,0
18561,23948,7805,0,0,0
18470,23883,7673,0,0,0
18382,23821,7542,0,0,0
18295,23760,7415,0,0,0
18211,23698,7291,0,0,0
18129,23631,7173,0,0,0
18045,23565,7057,0,0,0
17960,23504,6948,0,0,0
17877,23450,6851,0,0,0
17799,23402,6764,0,0,0
17738,23369,6689,0,0,0
17705,23360,6641,0,0,0
17711,23382,6646,0,0,0
17766,23435,6717,0,0,0
17875,23519,6860,0,0,0
18043,23641,7087,0,0,0
18276,23807,7411,0,0,0
18572,24023,7838,0,0,0
18930,24289,8362,0,0,0
19345,24602,8976,0,0,0
19808,24951,9668,0,0,0
20310,25327,10423,0,0,0
20843,25724,11222,0,0,0
21392,26136,12044,0,0,0
21945,26550,12871,0,0,0
22486,26954,13682,0,0,0
23000,27338,14455,0,0,0
23483,27701,15176,0,0,0
23930,28036,15839,0,0,0
24332,28335,16435,0,0,0
24677,28592,16953,0,0,0
24963,28807,17392,0,0,0
25195,28983,17764,0,0,0
25380,29123,18071,0,0,0
25521,29230,18305,0,0,0
25612,29300,18462,0,0,0
25652,29334,18549,0,0,0
25648,29334,18572,0,0,0
25610,29309,18541,0,0,0
25549,29268,18472,0,0,0
25468,29210,18368,0,0,0
25365,29132,18234,0,0,0
25250,29041,18079,0,0,0
25129,28942,17914,0,0,0
25006,28840,17745,0,0,0
24882,28742,17576,0,0,0
24763,28653,17413,0,0,0
24650,28572,17259,0,0,0
24547,28495,17117,0,0,0
24455,28425,16988,0,0,0
24378,28367,16872,0,0,0
24313,28320,16771,0,0,0
24255,28278,16684,0,0,0
24202,28240,16602,0,0,0
24152,28208,16523,0,0,0
24109,28178,16451,0,0,0
24073,28143,16386,0,0,0
24034,28104,16318,0,0,0
23985,28065,16239,0,0,0
23925,28020,16151,0,0,0
23856,27966,16057,0,0,0
23778,27908,15950,0,0,0
23693,27849,15829,0,0,0
23606,27788,15699,0,0,0
23515,27718,15567,0,0,0
23424,27646,15431,0,0,0
23335,27580,15295,0,0,0
23245,27518,15169,0,0,0
23154,27459,15053,0,0,0
23067,27404,14945,0,0,0
22990,27353,14843,0,0,0
22926,27309,14754,0,0,0
22872,27271,14677,0,0,0
22822,27237,14613,0,0,0
22777,27207,14564,0,0,0
22738,27181,14531,0,0,0
22710,27159,14505,0,0,0
22696,27146,14486,0,0,0
22696,27141,14480,0,0,0
22705,27144,14491,0,0,0
22714,27153,14508,0,0,0
22723,27166,14523,0,0,0
22739,27180,14540,0,0,0
22755,27189,14561,0,0,0
22766,27195,14579,0,0,0
22771,27198,14589,0,0,0
22769,27194,14587,0,0,0
22760,27181,14571,0,0,0
22745,27165,14542,0,0,0
22719,27145,14494,0,0,0
22682,27122,14432,0,0,0
22635,27092,14361,0,0,0
22578,27054,14277,0,0,0
22514,27010,14177,0,0,0
22447,26963,14070,0,0,0
22379,26912,13960,0,0,0
22301,26851,13841,0,0,0
22213,26781,13712,0,0,0
22119,26708,13583,0,0,0
22022,26632,13456,0,0,0
21923,26556,13322,0,0,0
21825,26483,13179,0,0,0
21730,26407,13034,0,0,0
21628,26325,12887,0,0,0
21519,26244,12732,0,0,0
21413,26164,12573,0,0,0
21311,26084,12418,0,0,0
21207,26004,12267,0,0,0
21099,25928,12118,0,0,0
20993,25854,11973,0,0,0
20891,25780,11832,0,0,0
20794,25705,11692,0,0,0
20700,25631,11549,0,0,0
20607,25565,11408,0,0,0
20514,25507,11271,0,0,0
20418,25449,11136,0,0,0
20321,25389,10996,0,0,0
20234,25330,10855,0,0,0
20156,25272,10723,0,0,0
20080,25214,10602,0,0,0
20000,25157,10487,0,0,0
19923,25100,10381,0,0,0
19852,25043,10287,0,0,0
19784,24991,10201,0,0,0
19721,24948,10117,0,0,0
19666,24913,10038,0,0,0
19622,24881,9970,0,0,0
19578,24848,9907,0,0,0
19533,24816,9851,0,0,0
19497,24789,9805,0,0,0
19469,24764,9766,0,0,0
19438,24734,9724,0,0,0
19403,24704,9680,0,0,0
19369,24676,9635,0,0,0
19332,24646,9587,0,0,0
19295,24616,9532,0,0,0
19261,24591,9471,0,0,0
19231,24568,9405,0,0,0
19201,24544,9337,0,0,0
19169,24516,9268,0,0,0
19132,24490,9203,0,0,0
19092,24461,9144,0,0,0
19053,24429,9088,0,0,0
19012,24395,9027,0,0,0
18967,24359,8962,0,0,0
18917,24318,8891,0,0,0
18863,24271,8815,0,0,0
18802,24224,8733,0,0,0
18734,24179,8651,0,0,0
18662,24133,8570,0,0,0
18592,24087,8486,0,0,0
18527,24046,8401,0,0,0
18472,24011,8320,0,0,0
18426,23979,8239,0,0,0
18384,23947,8156,0,0,0
18336,23914,8071,0,0,0
18287,23880,7990,0,0,0
18244,23845,7915,0,0,0
18203,23811,7842,0,0,0
18159,23779,7766,0,0,0
18115,23748,7690,0,0,0
18072,23717,7613,0,0,0
18030,23686,7536,0,0,0
17986,23660,7458,0,0,0
17940,23632,7387,0,0,0
17893,23600,7322,0,0,0
17841,23561,7251,0,0,0
17781,23519,7169,0,0,0
17720,23476,7086,0,0,0
17658,23433,6998,0,0,0
17589,23384,6904,0,0,0
17519,23331,6807,0,0,0
17457,23284,6713,0,0,0
17399,23245,6626,0,0,0
17340,23208,6537,0,0,0
17276,23169,6444,0,0,0
17214,23126,6351,0,0,0
17157,23077,6260,0,0,0
17103,23030,6167,0,0,0
17052,22988,6075,0,0,0
17001,22946,5984,0,0,0
16946,22898,5893,0,0,0
16889,22848,5794,0,0,0
16833,22799,5691,0,0,0
16780,22756,5594,0,0,0
16723,22712,5499,0,0,0
16657,22663,5399,0,0,0
16586,22613,5295,0,0,0
16523,22567,5198,0,0,0
16475,22528,5124,0,0,0
16447,22506,5082,0,0,0
16445,22510,5079,0,0,0
16486,22549,5137,0,0,0
16582,22622,5269,0,0,0
16735,22735,5480,0,0,0
16955,22894,5787,0,0,0
17249,23103,6200,0,0,0
17612,23361,6714,0,0,0
18035,23665,7324,0,0,0
18512,24010,8023,0,0,0
19035,24392,8800,0,0,0
19599,24805,9638,0,0,0
20191,25244,10512,0,0,0
20796,25697,11402,0,0,0
21397,26144,12284,0,0,0
21978,26574,13139,0,0,0
22526,26983,13950,0,0,0
23036,27365,14708,0,0,0
23503,27713,15410,0,0,0
23915,28023,16038,0,0,0
24271,28290,16581,0,0,0
24579,28516,17043,0,0,0
24836,28702,17430,0,0,0
25040,28849,17739,0,0,0
25195,28962,17975,0,0,0
25310,29046,18146,0,0,0
25388,29099,18258,0,0,0
25428,29122,18322,0,0,0
25436,29124,18347,0,0,0
25421,29107,18339,0,0,0
25384,29069,18300,0,0,0
25330,29018,18233,0,0,0
25268,28963,18144,0,0,0
25200,28907,18043,0,0,0
25126,28848,17934,0,0,0
25044,28785,17811,0,0,0
24960,28720,17677,0,0,0
24881,28655,17544,0,0,0
24802,28590,17418,0,0,0
24715,28524,17295,0,0,0
24625,28461,17179,0,0,0
24539,28399,17073,0,0,0
24458,28335,16972,0,0,0
24381,28271,16869,0,0,0
24306,28210,16762,0,0,0
24228,28151,16652,0,0,0
24144,28086,16537,0,0,0
24054,28021,16412,0,0,0
23965,27963,16285,0,0,0
23882,27908,16161,0,0,0
23794,27849,16037,0,0,0
23701,27788,15909,0,0,0
23615,27729,15782,0,0,0
23537,27672,15661,0,0,0
23460,27616,15547,0,0,0
23385,27561,15442,0,0,0
23320,27509,15349,0,0,0
23268,27464,15269,0,0,0
23226,27425,15202,0,0,0
23190,27395,15148,0,0,0
23162,27373,15106,0,0,0
23143,27354,15073,0,0,0
23129,27337,15043,0,0,0
23113,27323,15015,0,0,0
23099,27311,14998,0,0,0
23094,27302,14995,0,0,0
23095,27298,15003,0,0,0
23103,27303,15020,0,0,0
23120,27321,15049,0,0,0
23147,27347,15087,0,0,0
23175,27375,15124,0,0,0
23200,27405,15159,0,0,0
23225,27434,15199,0,0,0
23249,27455,15235,0,0,0
23270,27471,15261,0,0,0
23287,27485,15278,0,0,0
23297,27489,15286,0,0,0
23295,27481,15279,0,0,0
23283,27464,15256,0,0,0
23262,27444,15219,0,0,0
23232,27419,15167,0,0,0
23189,27383,15101,0,0,0
23132,27339,15019,0,0,0
23058,27286,14922,0,0,0
22974,27224,14818,0,0,0
22885,27156,14705,0,0,0
22791,27083,14577,0,0,0
22696,27008,14437,0,0,0
22600,26932,14293,0,0,0
22499,26853,14147,0,0,0
22397,26776,13998,0,0,0
22302,26706,13858,0,0,0
22214,26640,13726,0,0,0
22129,26572,13588,0,0,0
22044,26503,13440,0,0,0
21958,26435,13297,0,0,0
21869,26371,13164,0,0,0
21780,26307,13033,0,0,0
21692,26242,12900,0,0,0
21607,26177,12767,0,0,0
21524,26111,12637,0,0,0
21439,26045,12510,0,0,0
21353,25980,12384,0,0,0
21272,25918,12261,0,0,0
21193,25854,12141,0,0,0
21110,25789,12019,0,0,0
21024,25721,11890,0,0,0
20943,25656,11766,0,0,0
20869,25596,11648,0,0,0
20791,25534,11529,0,0,0
20707,25474,11408,0,0,0
20631,25422,11298,0,0,0
20567,25378,11199,0,0,0
20508,25339,11104,0,0,0
20450,25303,11016,0,0,0
20391,25265,10939,0,0,0
20332,25222,10865,0,0,0
20278,25181,10789,0,0,0
20235,25146,10712,0,0,0
20198,25112,10642,0,0,0
20157,25075,10577,0,0,0
20109,25037,10510,0,0,0
20061,25001,10441,0,0,0
20018,24966,10376,0,0,0
19982,24934,10312,0,0,0
19950,24907,10246,0,0,0
19920,24887,10183,0,0,0
19886,24863,10121,0,0,0
19840,24829,10055,0,0,0
19788,24790,9981,0,0,0
19736,24754,9909,0,0,0
19687,24722,9847,0,0,0
19639,24690,9787,0,0,0
19589,24654,9717,0,0,0
19541,24614,9641,0,0,0
19496,24574,9565,0,0,0
19451,24535,9487,0,0,0
19398,24495,9403,0,0,0
19336,24452,9314,0,0,0
19270,24406,9226,0,0,0
19201,24359,9141,0,0,0
19130,24313,9055,0,0,0
19061,24267,8969,0,0,0
18993,24218,8881,0,0,0
18923,24166,8785,0,0,0
18853,24115,8683,0,0,0
18790,24070,8584,0,0,0
18731,24027,8494,0,0,0
18666,23980,8405,0,0,0
18593,23931,8311,0,0,0
18524,23881,8213,0,0,0
18459,23830,8111,0,0,0
18392,23779,8004,0,0,0
18326,23733,7896,0,0,0
18264,23692,7792,0,0,0
18204,23650,7693,0,0,0
18138,23606,7593,0,0,0
18069,23562,7489,0,0,0
18002,23516,7383,0,0,0
17935,23467,7278,0,0,0
17862,23417,7173,0,0,0
17788,23368,7069,0,0,0
17715,23319,6968,0,0,0
17643,23267,6868,0,0,0
17570,23214,6764,0,0,0
17498,23164,6661,0,0,0
17428,23115,6565,0,0,0
17360,23064,6470,0,0,0
17294,23014,6374,0,0,0
17234,22969,6282,0,0,0
17179,22927,6193,0,0,0
17126,22884,6103,0,0,0
17074,22842,6010,0,0,0
17019,22798,5916,0,0,0
16958,22749,5823,0,0,0
16891,22698,5729,0,0,0
16823,22649,5631,0,0,0
16758,22603,5529,0,0,0
16691,22553,5424,0,0,0
16617,22495,5311,0,0,0
16535,22433,5189,0,0,0
16453,22375,5067,0,0,0
16373,22319,4948,0,0,0
16294,22262,4835,0,0,0
16221,22211,4732,0,0,0
16168,22174,4652,0,0,0
16142,22157,4613,0,0,0
16150,22169,4630,0,0,0
16205,22219,4718,0,0,0
16320,22310,4890,0,0,0
16504,22447,5158,0,0,0
16760,22635,5529,0,0,0
17091,22877,6009,0,0,0
17490,23168,6595,0,0,0
17949,23499,7274,0,0,0
18460,23868,8031,0,0,0
19017,24274,8849,0,0,0
19606,24708,9712,0,0,0
20209,25152,10601,0,0,0
20802,25592,11487,0,0,0
21373,26021,12350,0,0,0
21915,26433,13180,0,0,0
22422,26816,13959,0,0,0
22886,27162,14672,0,0,0
23301,27471,15313,0,0,0
23663,27742,15881,0,0,0
23969,27969,16369,0,0,0
24222,28155,16771,0,0,0
24419,28303,17092,0,0,0
24560,28416,17343,0,0,0
24658,28495,17529,0,0,0
24720,28545,17646,0,0,0
24747,28569,17698,0,0,0
24742,28568,17705,0,0,0
24708,28542,17677,0,0,0
24648,28498,17608,0,0,0
24567,28440,17504,0,0,0
24474,28370,17381,0,0,0
24373,28290,17249,0,0,0
24266,28208,17105,0,0,0
24159,28128,16957,0,0,0
24059,28047,16818,0,0,0
23969,27970,16684,0,0,0
23884,27899,16553,0,0,0
23812,27840,16433,0,0,0
23755,27787,16331,0,0,0
23702,27735,16242,0,0,0
23652,27691,16168,0,0,0
23611,27661,16110,0,0,0
23575,27636,16062,0,0,0
23540,27613,16018,0,0,0
23505,27591,15972,0,0,0
23466,27568,15922,0,0,0
23421,27538,15865,0,0,0
23364,27502,15798,0,0,0
23295,27460,15722,0,0,0
23221,27410,15635,0,0,0
23145,27352,15543,0,0,0
23063,27288,15436,0,0,0
22974,27223,15309,0,0,0
22887,27154,15175,0,0,0
22800,27083,15042,0,0,0
22709,27014,14908,0,0,0
22613,26949,14771,0,0,0
22517,26884,14636,0,0,0
22424,26815,14505,0,0,0
22342,26752,14385,0,0,0
22274,26701,14278,0,0,0
22220,26656,14189,0,0,0
22177,26617,14114,0,0,0
22144,26588,14053,0,0,0
22120,26571,14009,0,0,0
22101,26562,13983,0,0,0
22086,26556,13967,0,0,0
22071,26551,13955,0,0,0
22060,26546,13947,0,0,0
22055,26543,13947,0,0,0
22050,26540,13947,0,0,0
22040,26540,13940,0,0,0
22031,26543,13926,0,0,0
22028,26544,13913,0,0,0
22024,26543,13900,0,0,0
22009,26538,13880,0,0,0
21980,26526,13846,0,0,0
21941,26504,13805,0,0,0
21894,26473,13757,0,0,0
21839,26439,13694,0,0,0
21776,26402,13624,0,0,0
21708,26356,13549,0,0,0
21631,26300,13459,0,0,0
21549,26243,13352,0,0,0
21471,26186,13239,0,0,0
21395,26126,13125,0,0,0
21315,26060,13004,0,0,0
21228,25987,12874,0,0,0
21139,25909,12740,0,0,0
21051,25831,12602,0,0,0
20960,25760,12461,0,0,0
20873,25696,12317,0,0,0
20791,25635,12177,0,0,0
20709,25574,12042,0,0,0
20624,25514,11902,0,0,0
20539,25457,11756,0,0,0
20454,25398,11613,0,0,0
20368,25334,11475,0,0,0
20274,25264,11332,0,0,0
20167,25187,11181,0,0,0
20050,25103,11026,0,0,0
19932,25016,10873,0,0,0
19816,24933,10718,0,0,0
19704,24856,10562,0,0,0
19596,24780,10408,0,0,0
19491,24704,10255,0,0,0
19388,24632,10100,0,0,0
19287,24559,9949,0,0,0
19188,24482,9806,0,0,0
19087,24399,9669,0,0,0
18985,24318,9538,0,0,0
18886,24245,9415,0,0,0
18792,24179,9302,0,0,0
18706,24119,9196,0,0,0
18629,24063,9091,0,0,0
18561,24014,8992,0,0,0
18503,23973,8904,0,0,0
18450,23939,8820,0,0,0
18398,23904,8732,0,0,0
18349,23870,8645,0,0,0
18303,23833,8564,0,0,0
18258,23798,8487,0,0,0
18209,23767,8412,0,0,0
18155,23733,8339,0,0,0
18095,23692,8265,0,0,0
18036,23650,8191,0,0,0
17977,23611,8116,0,0,0
17917,23570,8039,0,0,0
17857,23529,7961,0,0,0
17800,23488,7881,0,0,0
17747,23448,7797,0,0,0
17700,23407,7716,0,0,0
17655,23366,7638,0,0,0
17609,23324,7553,0,0,0
17560,23283,7464,0,0,0
17512,23244,7379,0,0,0
17464,23207,7301,0,0,0
17411,23172,7225,0,0,0
17354,23137,7146,0,0,0
17302,23102,7069,0,0,0
17252,23064,6995,0,0,0
17200,23027,6920,0,0,0
17152,22994,6840,0,0,0
17109,22961,6760,0,0,0
17064,22923,6680,0,0,0
17013,22882,6595,0,0,0
16962,22840,6507,0,0,0
16914,22801,6425,0,0,0
16862,22760,6346,0,0,0
16800,22712,6263,0,0,0
16732,22662,6171,0,0,0
16662,22609,6072,0,0,0
16586,22552,5973,0,0,0
16505,22497,5871,0,0,0
16426,22447,5764,0,0,0
16351,22397,5654,0,0,0
16279,22343,5536,0,0,0
16210,22290,5412,0,0,0
16145,22242,5292,0,0,0
16078,22197,5178,0,0,0
16003,22149,5065,0,0,0
15923,22097,4949,0,0,0
15844,22044,4836,0,0,0
15769,21988,4732,0,0,0
15690,21931,4632,0,0,0
15615,21879,4534,0,0,0
15550,21834,4438,0,0,0
15493,21790,4349,0,0,0
15438,21749,4266,0,0,0
15384,21713,4183,0,0,0
15332,21678,4103,0,0,0
15282,21642,4026,0,0,0
15230,21605,3941,0,0,0
15171,21564,3847,0,0,0
15113,21526,3754,0,0,0
15057,21493,3671,0,0,0
14996,21459,3590,0,0,0
14933,21423,3505,0,0,0
14873,21385,3420,0,0,0
14817,21342,3332,0,0,0
14758,21294,3237,0,0,0
14696,21249,3142,0,0,0
14628,21205,3051,0,0,0
14552,21159,2955,0,0,0
14469,21109,2848,0,0,0
14383,21055,2728,0,0,0
14297,20998,2602,0,0,0
14214,20941,2478,0,0,0
14133,20885,2359,0,0,0
14055,20833,2251,0,0,0
13983,20787,2161,0,0,0
13932,20752,2101,0,0,0
13922,20743,2087,0,0,0
13965,20770,2138,0,0,0
14060,20833,2269,0,0,0
14212,20936,2491,0,0,0
14432,21089,2810,0,0,0
14729,21300,3235,0,0,0
15102,21566,3772,0,0,0
15538,21878,4409,0,0,0
16025,22230,5128,0,0,0
16561,22616,5915,0,0,0
17136,23029,6759,0,0,0
17735,23460,7644,0,0,0
18340,23898,8544,0,0,0
18934,24329,9434,0,0,0
19507,24744,10289,0,0,0
20050,25138,11095,0,0,0
20552,25505,11840,0,0,0
21000,25835,12521,0,0,0
21393,26124,13131,0,0,0
21734,26377,13663,0,0,0
22028,26596,14115,0,0,0
22275,26780,14492,0,0,0
22470,26926,14796,0,0,0
22612,27030,15021,0,0,0
22707,27098,15174,0,0,0
22767,27139,15273,0,0,0
22795,27160,15328,0,0,0
22789,27158,15337,0,0,0
22752,27134,15309,0,0,0
22693,27095,15254,0,0,0
22620,27042,15173,0,0,0
22535,26981,15062,0,0,0
22443,26918,14932,0,0,0
22347,26850,14797,0,0,0
22248,26773,14661,0,0,0
22149,26696,14520,0,0,0
22055,26621,14379,0,0,0
21970,26553,14246,0,0,0
21894,26493,14125,0,0,0
21824,26438,14014,0,0,0
21762,26391,13919,0,0,0
21710,26353,13841,0,0,0
21670,26325,13780,0,0,0
21637,26303,13729,0,0,0
21606,26283,13687,0,0,0
21576,26257,13653,0,0,0
21545,26226,13616,0,0,0
21514,26197,13571,0,0,0
21483,26168,13521,0,0,0
21445,26134,13467,0,0,0
21393,26093,13401,0,0,0
21331,26048,13320,0,0,0
21269,26003,13234,0,0,0
21212,25960,13150,0,0,0
21156,25918,13062,0,0,0
21093,25873,12963,0,0,0
21025,25821,12859,0,0,0
20958,25766,12757,0,0,0
20897,25717,12664,0,0,0
20846,25680,12579,0,0,0
20801,25651,12503,0,0,0
20760,25622,12438,0,0,0
20720,25593,12378,0,0,0
20683,25568,12319,0,0,0
20652,25548,12268,0,0,0
20627,25528,12227,0,0,0
20601,25506,12193,0,0,0
20574,25486,12164,0,0,0
20553,25473,12146,0,0,0
20542,25466,12136,0,0,0
20537,25463,12127,0,0,0
20534,25464,12117,0,0,0
20530,25465,12105,0,0,0
20520,25462,12083,0,0,0
20503,25452,12051,0,0,0
20485,25438,12017,0,0,0
20464,25423,11989,0,0,0
20438,25407,11963,0,0,0
20407,25388,11932,0,0,0
20376,25368,11891,0,0,0
20344,25340,11843,0,0,0
20306,25306,11785,0,0,0
20260,25269,11713,0,0,0
20206,25232,11630,0,0,0
20148,25191,11543,0,0,0
20086,25145,11451,0,0,0
20022,25095,11346,0,0,0
19955,25042,11229,0,0,0
19886,24982,11110,0,0,0
19811,24917,10989,0,0,0
19727,24849,10858,0,0,0
19640,24782,10717,0,0,0
19553,24712,10572,0,0,0
19464,24645,10424,0,0,0
19369,24581,10271,0,0,0
19271,24513,10111,0,0,0
19171,24439,9947,0,0,0
19068,24362,9784,0,0,0
18959,24284,9622,0,0,0
18851,24206,9467,0,0,0
18747,24129,9320,0,0,0
18640,24053,9174,0,0,0
18527,23978,9025,0,0,0
18416,23907,8882,0,0,0
18318,23839,8745,0,0,0
18226,23773,8611,0,0,0
18142,23714,8487,0,0,0
18067,23661,8375,0,0,0
17995,23607,8269,0,0,0
17927,23553,8164,0,0,0
17865,23506,8059,0,0,0
17804,23457,7957,0,0,0
17739,23406,7857,0,0,0
17668,23356,7759,0,0,0
17597,23310,7664,0,0,0
17530,23264,7574,0,0,0
17465,23218,7490,0,0,0
17401,23173,7409,0,0,0
17336,23126,7326,0,0,0
17272,23075,7243,0,0,0
17209,23022,7157,0,0,0
17147,22972,7068,0,0,0
17089,22931,6978,0,0,0
17032,22896,6888,0,0,0
16971,22860,6796,0,0,0
16909,22825,6703,0,0,0
16852,22793,6612,0,0,0
16799,22761,6525,0,0,0
16748,22726,6445,0,0,0
16695,22693,6367,0,0,0
16641,22659,6290,0,0,0
16588,22621,6215,0,0,0
16538,22581,6142,0,0,0
16489,22543,6067,0,0,0
16442,22502,5990,0,0,0
16395,22459,5908,0,0,0
16345,22416,5824,0,0,0
16293,22376,5737,0,0,0
16244,22342,5648,0,0,0
16198,22311,5559,0,0,0
16152,22276,5466,0,0,0
16100,22240,5369,0,0,0
16042,22204,5273,0,0,0
15979,22164,5182,0,0,0
15916,22122,5090,0,0,0
15852,22077,4994,0,0,0
15778,22025,4894,0,0,0
15692,21966,4786,0,0,0
15603,21904,4674,0,0,0
15517,21848,4563,0,0,0
15437,21799,4460,0,0,0
15360,21753,4362,0,0,0
15284,21706,4260,0,0,0
15213,21660,4155,0,0,0
15149,21615,4059,0,0,0
15086,21573,3976,0,0,0
15020,21531,3896,0,0,0
14954,21488,3810,0,0,0
14895,21444,3720,0,0,0
14840,21397,3629,0,0,0
14789,21349,3537,0,0,0
14738,21303,3447,0,0,0
14683,21257,3359,0,0,0
14622,21207,3271,0,0,0
14554,21160,3179,0,0,0
14482,21117,3085,0,0,0
14412,21076,2994,0,0,0
14344,21034,2899,0,0,0
14270,20988,2794,0,0,0
14193,20939,2680,0,0,0
14116,20890,2568,0,0,0
14043,20844,2459,0,0,0
13970,20797,2353,0,0,0
13896,20747,2249,0,0,0
13819,20691,2144,0,0,0
13738,20631,2035,0,0,0
13658,20575,1920,0,0,0
13580,20527,1806,0,0,0
13501,20476,1692,0,0,0
13415,20419,1568,0,0,0
13323,20360,1431,0,0,0
13236,20302,1292,0,0,0
13158,20246,1155,0,0,0
13084,20192,1021,0,0,0
13009,20140,893,0,0,0
12936,20090,780,0,0,0
12869,20043,680,0,0,0
12815,20002,595,0,0,0
12779,19977,536,0,0,0
12772,19977,524,0,0,0
12808,20012,576,0,0,0
12893,20087,701,0,0,0
13031,20200,909,0,0,0
13230,20353,1211,0,0,0
13496,20545,1609,0,0,0
13828,20780,2101,0,0,0
14223,21060,2684,0,0,0
14679,21377,3352,0,0,0
15186,21725,4087,0,0,0
15726,22100,4868,0,0,0
16285,22495,5681,0,0,0
16850,22897,6511,0,0,0
17408,23296,7342,0,0,0
17947,23684,8151,0,0,0
18458,24051,8917,0,0,0
18938,24391,9632,0,0,0
19384,24703,10294,0,0,0
19786,24988,10895,0,0,0
20137,25240,11424,0,0,0
20431,25454,11878,0,0,0
20664,25627,12249,0,0,0
20847,25765,12542,0,0,0
20992,25876,12774,0,0,0
21099,25959,12954,0,0,0
21161,26010,13070,0,0,0
21184,26031,13124,0,0,0
21179,26032,13129,0,0,0
21152,26017,13100,0,0,0
21106,25988,13044,0,0,0
21041,25944,12963,0,0,0
20963,25886,12862,0,0,0
20875,25816,12748,0,0,0
20786,25742,12625,0,0,0
20700,25669,12495,0,0,0
20619,25599,12366,0,0,0
20543,25535,12243,0,0,0
20469,25473,12122,0,0,0
20393,25415,12000,0,0,0
20320,25363,11879,0,0,0
20253,25314,11767,0,0,0
20187,25267,11665,0,0,0
20120,25227,11570,0,0,0
20056,25190,11487,0,0,0
19995,25152,11411,0,0,0
19934,25113,11336,0,0,0
19871,25077,11257,0,0,0
19806,25038,11176,0,0,0
19742,24994,11087,0,0,0
19671,24942,10987,0,0,0
19593,24884,10875,0,0,0
19515,24825,10761,0,0,0
19443,24767,10648,0,0,0
19373,24710,10535,0,0,0
19304,24654,10425,0,0,0
19243,24602,10327,0,0,0
19193,24552,10243,0,0,0
19158,24509,10172,0,0,0
19136,24480,10116,0,0,0
19125,24465,10080,0,0,0
19116,24458,10060,0,0,0
19110,24458,10050,0,0,0
19112,24463,10050,0,0,0
19126,24473,10067,0,0,0
19148,24488,10100,0,0,0
19179,24510,10140,0,0,0
19218,24536,10188,0,0,0
19262,24563,10245,0,0,0
19304,24589,10305,0,0,0
19346,24615,10363,0,0,0
19391,24646,10421,0,0,0
19438,24677,10478,0,0,0
19476,24703,10525,0,0,0
19501,24724,10554,0,0,0
19515,24742,10574,0,0,0
19519,24751,10586,0,0,0
19510,24751,10589,0,0,0
19491,24744,10575,0,0,0
19463,24728,10545,0,0,0
19427,24701,10501,0,0,0
19383,24670,10442,0,0,0
19333,24636,10372,0,0,0
19278,24598,10296,0,0,0
19222,24558,10219,0,0,0
19161,24514,10133,0,0,0
19093,24467,10032,0,0,0
19021,24419,9925,0,0,0
18947,24366,9816,0,0,0
18866,24306,9698,0,0,0
18781,24240,9569,0,0,0
18694,24169,9433,0,0,0
18604,24099,9295,0,0,0
18508,24031,9156,0,0,0
18412,23965,9018,0,0,0
18320,23900,8885,0,0,0
18227,23830,8760,0,0,0
18133,23760,8637,0,0,0
18044,23696,8514,0,0,0
17960,23638,8393,0,0,0
17878,23579,8275,0,0,0
17794,23524,8157,0,0,0
17711,23472,8038,0,0,0
17631,23423,7920,0,0,0
17553,23371,7802,0,0,0
17478,23321,7686,0,0,0
17413,23275,7581,0,0,0
17359,23230,7486,0,0,0
17307,23187,7394,0,0,0
17256,23145,7300,0,0,0
17210,23109,7213,0,0,0
17171,23079,7138,0,0,0
17130,23051,7068,0,0,0
17084,23022,6994,0,0,0
17037,22994,6920,0,0,0
16992,22964,6848,0,0,0
16945,22929,6778,0,0,0
16894,22893,6711,0,0,0
16840,22854,6644,0,0,0
16788,22810,6576,0,0,0
16743,22767,6505,0,0,0
16700,22726,6430,0,0,0
16658,22687,6356,0,0,0
16619,22650,6289,0,0,0
16585,22619,6227,0,0,0
16556,22597,6172,0,0,0
16532,22579,6126,0,0,0
16509,22560,6086,0,0,0
16484,22538,6041,0,0,0
16457,22517,5988,0,0,0
16431,22498,5934,0,0,0
16409,22478,5882,0,0,0
16382,22458,5827,0,0,0
16349,22437,5769,0,0,0
16319,22415,5711,0,0,0
16291,22392,5651,0,0,0
16260,22367,5586,0,0,0
16223,22339,5518,0,0,0
16181,22307,5449,0,0,0
16131,22270,5373,0,0,0
16074,22230,5291,0,0,0
16017,22192,5212,0,0,0
15960,22157,5140,0,0,0
15901,22124,5069,0,0,0
15834,22088,4993,0,0,0
15765,22052,4913,0,0,0
15702,22016,4837,0,0,0
15637,21979,4765,0,0,0
15570,21941,4691,0,0,0
15505,21905,4614,0,0,0
15442,21862,4532,0,0,0
15379,21815,4439,0,0,0
15316,21770,4339,0,0,0
15253,21729,4237,0,0,0
15189,21686,4135,0,0,0
15120,21633,4027,0,0,0
15051,21578,3914,0,0,0
14990,21527,3807,0,0,0
14935,21479,3709,0,0,0
14875,21427,3611,0,0,0
14812,21375,3511,0,0,0
14749,21328,3410,0,0,0
14689,21281,3311,0,0,0
14631,21233,3215,0,0,0
14571,21191,3125,0,0,0
14508,21151,3042,0,0,0
14442,21105,2960,0,0,0
14378,21057,2875,0,0,0
14316,21012,2788,0,0,0
14253,20970,2703,0,0,0
14190,20930,2617,0,0,0
14124,20890,2523,0,0,0
14053,20849,2418,0,0,0
13985,20803,2311,0,0,0
13925,20756,2204,0,0,0
13866,20711,2098,0,0,0
13801,20670,1994,0,0,0
13743,20633,1896,0,0,0
13701,20605,1812,0,0,0
13681,20591,1757,0,0,0
13689,20598,1745,0,0,0
13730,20629,1787,0,0,0
13811,20686,1894,0,0,0
13945,20780,2081,0,0,0
14140,20919,2364,0,0,0
14401,21105,2749,0,0,0
14723,21335,3232,0,0,0
15103,21608,3804,0,0,0
15539,21921,4455,0,0,0
16032,22270,5175,0,0,0
16569,22649,5952,0,0,0
17132,23051,6771,0,0,0
17705,23465,7613,0,0,0
18280,23879,8462,0,0,0
18842,24283,9299,0,0,0
19375,24670,10104,0,0,0
19876,25035,10863,0,0,0
20338,25368,11562,0,0,0
20752,25665,12183,0,0,0
21113,25927,12719,0,0,0
21423,26155,13180,0,0,0
21686,26351,13577,0,0,0
21895,26512,13904,0,0,0
22049,26641,14158,0,0,0
22162,26740,14348,0,0,0
22237,26805,14483,0,0,0
22275,26838,14566,0,0,0
22279,26844,14598,0,0,0
22254,26829,14584,0,0,0
22205,26790,14535,0,0,0
22141,26735,14457,0,0,0
22069,26674,14360,0,0,0
21991,26609,14251,0,0,0
21904,26539,14136,0,0,0
21808,26463,14014,0,0,0
21711,26389,13884,0,0,0
21618,26317,13754,0,0,0
21532,26248,13631,0,0,0
21453,26185,13513,0,0,0
21381,26133,13402,0,0,0
21318,26087,13306,0,0,0
21263,26043,13223,0,0,0
21210,26005,13147,0,0,0
21157,25972,13073,0,0,0
21105,25940,13001,0,0,0
21056,25904,12932,0,0,0
21004,25867,12861,0,0,0
20946,25826,12781,0,0,0
20881,25777,12690,0,0,0
20813,25718,12587,0,0,0
20749,25658,12474,0,0,0
20690,25606,12360,0,0,0
20631,25555,12254,0,0,0
20564,25502,12153,0,0,0
20495,25454,12052,0,0,0
20437,25418,11956,0,0,0
20389,25388,11876,0,0,0
20348,25357,11809,0,0,0
20310,25331,11749,0,0,0
20279,25315,11703,0,0,0
20263,25306,11676,0,0,0
20263,25305,11669,0,0,0
20275,25317,11683,0,0,0
20296,25341,11717,0,0,0
20326,25371,11766,0,0,0
20364,25403,11823,0,0,0
20408,25434,11875,0,0,0
20454,25465,11927,0,0,0
20503,25493,11984,0,0,0
20551,25514,12036,0,0,0
20590,25530,12077,0,0,0
20623,25547,12117,0,0,0
20654,25566,12160,0,0,0
20672,25580,12196,0,0,0
20677,25586,12220,0,0,0
20672,25584,12230,0,0,0
20654,25572,12221,0,0,0
20624,25552,12189,0,0,0
20590,25529,12139,0,0,0
20554,25498,12077,0,0,0
20510,25457,12005,0,0,0
20459,25411,11923,0,0,0
20407,25367,11835,0,0,0
20354,25321,11748,0,0,0
20292,25273,11658,0,0,0
20221,25224,11555,0,0,0
20141,25170,11437,0,0,0
20057,25106,11313,0,0,0
19970,25037,11186,0,0,0
19879,24971,11058,0,0,0
19782,24906,10924,0,0,0
19683,24835,10788,0,0,0
19584,24763,10650,0,0,0
19488,24698,10509,0,0,0
19396,24638,10367,0,0,0
19302,24572,10228,0,0,0
19202,24500,10089,0,0,0
19101,24428,9946,0,0,0
19004,24359,9803,0,0,0
18914,24293,9669,0,0,0
18827,24227,9539,0,0,0
18742,24163,9413,0,0,0
18659,24102,9294,0,0,0
18578,24042,9180,0,0,0
18501,23983,9069,0,0,0
18431,23933,8964,0,0,0
18370,23892,8867,0,0,0
18315,23853,8777,0,0,0
18264,23815,8690,0,0,0
18217,23780,8605,0,0,0
18172,23747,8521,0,0,0
18129,23712,8440,0,0,0
18087,23676,8359,0,0,0
18046,23638,8280,0,0,0
18011,23599,8209,0,0,0
17979,23562,8145,0,0,0
17941,23527,8081,0,0,0
17895,23493,8012,0,0,0
17848,23461,7941,0,0,0
17801,23430,7872,0,0,0
17749,23399,7805,0,0,0
17693,23367,7737,0,0,0
17639,23334,7666,0,0,0
17585,23296,7591,0,0,0
17530,23258,7510,0,0,0
17475,23224,7426,0,0,0
17424,23192,7345,0,0,0
17380,23160,7268,0,0,0
17337,23130,7193,0,0,0
17292,23099,7118,0,0,0
17247,23067,7044,0,0,0
17204,23036,6972,0,0,0
17158,23004,6902,0,0,0
17107,22971,6836,0,0,0
17057,22936,6770,0,0,0
17006,22897,6698,0,0,0
16954,22859,6623,0,0,0
16907,22823,6551,0,0,0
16863,22787,6480,0,0,0
16813,22747,6401,0,0,0
16760,22704,6315,0,0,0
16710,22664,6224,0,0,0
16663,22623,6131,0,0,0
16610,22579,6042,0,0,0
16546,22534,5953,0,0,0
16478,22489,5862,0,0,0
16410,22440,5768,0,0,0
16340,22390,5672,0,0,0
16270,22344,5580,0,0,0
16198,22299,5488,0,0,0
16122,22251,5395,0,0,0
16049,22204,5303,0,0,0
15981,22162,5216,0,0,0
15921,22126,5137,0,0,0
15866,22094,5062,0,0,0
15809,22059,4985,0,0,0
15753,22019,4905,0,0,0
15703,21979,4824,0,0,0
15657,21936,4743,0,0,0
15609,21890,4657,0,0,0
15554,21844,4559,0,0,0
15495,21799,4455,0,0,0
15438,21754,4352,0,0,0
15386,21712,4248,0,0,0
15337,21673,4146,0,0,0
15287,21636,4053,0,0,0
15236,21598,3965,0,0,0
15176,21561,3872,0,0,0
15108,21525,3777,0,0,0
15042,21490,3692,0,0,0
14980,21452,3610,0,0,0
14917,21409,3520,0,0,0
14856,21360,3423,0,0,0
14800,21312,3332,0,0,0
14746,21266,3250,0,0,0
14691,21224,3172,0,0,0
14635,21187,3091,0,0,0
14577,21150,3012,0,0,0
14520,21110,2931,0,0,0
14465,21073,2844,0,0,0
14411,21038,2760,0,0,0
14361,21005,2686,0,0,0
14322,20978,2629,0,0,0
14301,20966,2597,0,0,0
14312,20973,2605,0,0,0
14364,21009,2669,0,0,0
14459,21079,2801,0,0,0
14607,21188,3010,0,0,0
14817,21341,3311,0,0,0
15090,21540,3712,0,0,0
15422,21781,4207,0,0,0
15818,22065,4789,0,0,0
16282,22393,5459,0,0,0
16806,22760,6208,0,0,0
17368,23156,7015,0,0,0
17956,23576,7861,0,0,0
18558,24010,8730,0,0,0
19156,24444,9602,0,0,0
19737,24871,10465,0,0,0
20291,25287,11301,0,0,0
20813,25681,12091,0,0,0
21290,26043,12824,0,0,0
21719,26372,13490,0,0,0
22104,26669,14082,0,0,0
22442,26929,14600,0,0,0
22727,27146,15046,0,0,0
22964,27323,15417,0,0,0
23161,27468,15719,0,0,0
23315,27581,15962,0,0,0
23420,27658,16147,0,0,0
23481,27704,16270,0,0,0
23512,27727,16338,0,0,0
23523,27732,16372,0,0,0
23512,27720,16375,0,0,0
23478,27692,16343,0,0,0
23430,27652,16283,0,0,0
23375,27605,16210,0,0,0
23313,27559,16129,0,0,0
23245,27517,16040,0,0,0
23175,27476,15948,0,0,0
23107,27432,15855,0,0,0
23042,27382,15760,0,0,0
22981,27333,15670,0,0,0
22927,27291,15594,0,0,0
22881,27254,15534,0,0,0
22843,27219,15482,0,0,0
22816,27190,15435,0,0,0
22804,27171,15402,0,0,0
22799,27156,15382,0,0,0
22790,27142,15365,0,0,0
22772,27132,15345,0,0,0
22753,27124,15323,0,0,0
22733,27112,15299,0,0,0
22702,27094,15264,0,0,0
22663,27068,15212,0,0,0
22621,27034,15145,0,0,0
22571,26992,15070,0,0,0
22512,26950,14986,0,0,0
22451,26910,14891,0,0,0
22388,26867,14790,0,0,0
22325,26817,14685,0,0,0
22268,26766,14582,0,0,0
22220,26722,14486,0,0,0
22174,26684,14402,0,0,0
22125,26646,14330,0,0,0
22078,26612,14265,0,0,0
22042,26588,14207,0,0,0
22024,26571,14162,0,0,0
22019,26559,14128,0,0,0
22019,26551,14098,0,0,0
22021,26549,14075,0,0,0
22023,26549,14066,0,0,0
22027,26550,14072,0,0,0
22036,26558,14089,0,0,0
22053,26576,14113,0,0,0
22072,26594,14141,0,0,0
22090,26607,14171,0,0,0
22107,26620,14196,0,0,0
22121,26632,14217,0,0,0
22131,26638,14236,0,0,0
22135,26632,14244,0,0,0
22134,26621,14237,0,0,0
22130,26611,14218,0,0,0
22114,26599,14187,0,0,0
22080,26577,14141,0,0,0
22033,26548,14080,0,0,0
21984,26514,14007,0,0,0
21932,26471,13926,0,0,0
21868,26417,13834,0,0,0
21790,26357,13721,0,0,0
21711,26296,13600,0,0,0
21631,26234,13481,0,0,0
21546,26171,13358,0,0,0
21458,26108,13227,0,0,0
21372,26042,13093,0,0,0
21284,25971,12955,0,0,0
21186,25895,12809,0,0,0
21081,25820,12657,0,0,0
20973,25748,12507,0,0,0
20866,25674,12364,0,0,0
20766,25602,12230,0,0,0
20679,25538,12101,0,0,0
20601,25480,11977,0,0,0
20523,25419,11856,0,0,0
20440,25357,11734,0,0,0
20358,25302,11612,0,0,0
20285,25251,11494,0,0,0
20221,25199,11381,0,0,0
20157,25148,11267,0,0,0
20088,25098,11154,0,0,0
20018,25048,11047,0,0,0
19948,24997,10947,0,0,0
19879,24944,10852,0,0,0
19817,24893,10762,0,0,0
19764,24846,10678,0,0,0
19709,24800,10594,0,0,0
19654,24757,10508,0,0,0
19601,24717,10420,0,0,0
19550,24678,10335,0,0,0
19497,24639,10254,0,0,0
19440,24601,10172,0,0,0
19382,24566,10088,0,0,0
19324,24528,10004,0,0,0
19264,24485,9920,0,0,0
19203,24443,9836,0,0,0
19154,24409,9761,0,0,0
19112,24378,9696,0,0,0
19067,24344,9633,0,0,0
19023,24311,9568,0,0,0
18983,24284,9505,0,0,0
18945,24253,9444,0,0,0
18900,24217,9379,0,0,0
18855,24181,9310,0,0,0
18818,24148,9243,0,0,0
18788,24115,9178,0,0,0
18751,24079,9112,0,0,0
18707,24046,9042,0,0,0
18659,24016,8972,0,0,0
18607,23983,8901,0,0,0
18546,23946,8827,0,0,0
18483,23910,8751,0,0,0
18422,23874,8676,0,0,0
18361,23833,8599,0,0,0
18299,23790,8517,0,0,0
18240,23751,8430,0,0,0
18179,23715,8341,0,0,0
18114,23674,8251,0,0,0
18047,23629,8161,0,0,0
17982,23584,8071,0,0,0
17924,23541,7987,0,0,0
17869,23499,7904,0,0,0
17815,23455,7812,0,0,0
17761,23412,7711,0,0,0
17710,23373,7612,0,0,0
17656,23336,7522,0,0,0
17593,23296,7437,0,0,0
17528,23254,7352,0,0,0
17461,23210,7268,0,0,0
17394,23163,7180,0,0,0
17328,23115,7091,0,0,0
17268,23069,7006,0,0,0
17212,23023,6923,0,0,0
17157,22974,6835,0,0,0
17096,22924,6739,0,0,0
17032,22874,6637,0,0,0
16966,22827,6533,0,0,0
16898,22781,6428,0,0,0
16824,22735,6318,0,0,0
16746,22689,6208,0,0,0
16669,22640,6099,0,0,0
16595,22587,5992,0,0,0
16521,22536,5884,0,0,0
16446,22489,5777,0,0,0
16372,22441,5673,0,0,0
16305,22392,5565,0,0,0
16242,22346,5454,0,0,0
16179,22301,5346,0,0,0
16115,22252,5244,0,0,0
16052,22201,5143,0,0,0
15988,22151,5042,0,0,0
15921,22103,4940,0,0,0
15852,22054,4839,0,0,0
15782,22003,4734,0,0,0
15710,21954,4628,0,0,0
15640,21906,4526,0,0,0
15573,21855,4427,0,0,0
15499,21798,4323,0,0,0
15421,21740,4215,0,0,0
15347,21688,4116,0,0,0
15287,21647,4034,0,0,0
15241,21620,3973,0,0,0
15217,21613,3946,0,0,0
15226,21629,3972,0,0,0
15283,21675,4063,0,0,0
15394,21761,4234,0,0,0
15570,21895,4498,0,0,0
15818,22080,4866,0,0,0
16139,22311,5336,0,0,0
16524,22586,5899,0,0,0
16970,22904,6547,0,0,0
17474,23264,7276,0,0,0
18022,23655,8068,0,0,0
18594,24066,8898,0,0,0
19169,24487,9746,0,0,0
19740,24908,10592,0,0,0
20303,25322,11419,0,0,0
20847,25725,12217,0,0,0
21359,26109,12976,0,0,0
21827,26464,13683,0,0,0
22246,26785,14323,0,0,0
22618,27073,14893,0,0,0
22948,27331,15396,0,0,0
23231,27554,15836,0,0,0
23460,27735,16201,0,0,0
23641,27875,16488,0,0,0
23782,27982,16712,0,0,0
23887,28054,16882,0,0,0
23950,28094,16994,0,0,0
23972,28108,17046,0,0,0
23965,28101,17051,0,0,0
23935,28073,17020,0,0,0
23882,28028,16958,0,0,0
23811,27976,16872,0,0,0
23732,27919,16772,0,0,0
23655,27857,16666,0,0,0
23583,27795,16558,0,0,0
23515,27740,16453,0,0,0
23452,27695,16363,0,0,0
23393,27655,16292,0,0,0
23342,27626,16235,0,0,0
23300,27609,16188,0,0,0
23271,27598,16152,0,0,0
23254,27589,16127,0,0,0
23243,27580,16107,0,0,0
23231,27571,16091,0,0,0
23219,27563,16077,0,0,0
23204,27551,16056,0,0,0
23180,27530,16016,0,0,0
23150,27501,15959,0,0,0
23113,27469,15892,0,0,0
23063,27431,15814,0,0,0
23002,27390,15720,0,0,0
22935,27345,15616,0,0,0
22866,27291,15512,0,0,0
22791,27227,15405,0,0,0
22710,27159,15291,0,0,0
22626,27093,15170,0,0,0
22549,27032,15054,0,0,0
22481,26973,14945,0,0,0
22418,26919,14841,0,0,0
22359,26873,14744,0,0,0
22303,26828,14652,0,0,0
22249,26783,14568,0,0,0
22203,26746,14498,0,0,0
22167,26720,14446,0,0,0
22139,26704,14415,0,0,0
22116,26694,14396,0,0,0
22098,26687,14384,0,0,0
22089,26685,14384,0,0,0
22090,26687,14396,0,0,0
22092,26692,14409,0,0,0
22098,26699,14421,0,0,0
22111,26709,14436,0,0,0
22125,26717,14452,0,0,0
22133,26722,14461,0,0,0
22138,26725,14463,0,0,0
22144,26725,14461,0,0,0
22144,26717,14454,0,0,0
22134,26707,14434,0,0,0
22115,26695,14394,0,0,0
22086,26675,14343,0,0,0
22043,26645,14285,0,0,0
21987,26605,14210,0,0,0
21920,26557,14116,0,0,0
21847,26502,14014,0,0,0
21772,26439,13911,0,0,0
21691,26374,13799,0,0,0
21606,26313,13680,0,0,0
21519,26252,13559,0,0,0
21433,26188,13435,0,0,0
21342,26126,13304,0,0,0
21247,26066,13164,0,0,0
21151,26000,13021,0,0,0
21053,25925,12882,0,0,0
20960,25853,12750,0,0,0
20873,25791,12622,0,0,0
20790,25736,12498,0,0,0
20709,25681,12372,0,0,0
20629,25624,12240,0,0,0
20554,25567,12106,0,0,0
20483,25507,11981,0,0,0
20406,25442,11858,0,0,0
20322,25376,11733,0,0,0
20237,25312,11610,0,0,0
20158,25251,11493,0,0,0
20084,25192,11382,0,0,0
20008,25136,11277,0,0,0
19928,25077,11172,0,0,0
19846,25014,11064,0,0,0
19769,24952,10956,0,0,0
19698,24897,10848,0,0,0
19633,24848,10745,0,0,0
19576,24803,10653,0,0,0
19525,24763,10569,0,0,0
19481,24733,10487,0,0,0
19442,24707,10415,0,0,0
19401,24680,10353,0,0,0
19355,24653,10292,0,0,0
19305,24626,10226,0,0,0
19255,24598,10161,0,0,0
19208,24566,10101,0,0,0
19162,24535,10037,0,0,0
19117,24508,9968,0,0,0
19075,24483,9902,0,0,0
19033,24456,9839,0,0,0
18990,24425,9775,0,0,0
18949,24394,9713,0,0,0
18906,24359,9654,0,0,0
18856,24318,9594,0,0,0
18803,24276,9528,0,0,0
18753,24239,9462,0,0,0
18708,24206,9401,0,0,0
18666,24173,9344,0,0,0
18623,24141,9282,0,0,0
18581,24112,9217,0,0,0
18542,24084,9155,0,0,0
18505,24060,9099,0,0,0
18468,24041,9048,0,0,0
18436,24023,8995,0,0,0
18411,24004,8942,0,0,0
18388,23980,8885,0,0,0
18362,23954,8819,0,0,0
18330,23929,8754,0,0,0
18292,23901,8695,0,0,0
18245,23871,8636,0,0,0
18195,23839,8568,0,0,0
18147,23807,8494,0,0,0
18100,23775,8420,0,0,0
18056,23742,8346,0,0,0
18016,23709,8268,0,0,0
17979,23677,8192,0,0,0
17939,23640,8121,0,0,0
17896,23602,8050,0,0,0
17848,23564,7978,0,0,0
17794,23525,7905,0,0,0
17737,23486,7834,0,0,0
17681,23445,7763,0,0,0
17623,23404,7689,0,0,0
17568,23367,7614,0,0,0
17523,23334,7539,0,0,0
17477,23297,7454,0,0,0
17424,23258,7359,0,0,0
17374,23222,7264,0,0,0
17327,23186,7173,0,0,0
17278,23150,7085,0,0,0
17227,23118,6998,0,0,0
17175,23081,6913,0,0,0
17117,23036,6826,0,0,0
17055,22988,6737,0,0,0
16995,22946,6648,0,0,0
16938,22904,6558,0,0,0
16877,22858,6462,0,0,0
16807,22806,6356,0,0,0
16731,22753,6246,0,0,0
16651,22695,6139,0,0,0
16567,22636,6032,0,0,0
16480,22579,5922,0,0,0
16394,22525,5808,0,0,0
16309,22470,5693,0,0,0
16225,22414,5580,0,0,0
16141,22361,5467,0,0,0
16056,22310,5355,0,0,0
15970,22254,5246,0,0,0
15881,22197,5141,0,0,0
15804,22148,5053,0,0,0
15756,22121,4995,0,0,0
15744,22117,4983,0,0,0
15773,22139,5027,0,0,0
15852,22199,5140,0,0,0
15997,22308,5341,0,0,0
16215,22464,5642,0,0,0
16499,22669,6042,0,0,0
16851,22923,6537,0,0,0
17269,23225,7127,0,0,0
17746,23567,7804,0,0,0
18266,23940,8554,0,0,0
18815,24340,9357,0,0,0
19382,24756,10192,0,0,0
19957,25178,11036,0,0,0
20527,25598,11866,0,0,0
21084,26009,12669,0,0,0
21613,26400,13431,0,0,0
22097,26759,14136,0,0,0
22531,27085,14774,0,0,0
22913,27378,15341,0,0,0
23242,27631,15834,0,0,0
23514,27840,16253,0,0,0
23728,28005,16596,0,0,0
23891,28133,16863,0,0,0
24013,28225,17067,0,0,0
24092,28281,17214,0,0,0
24125,28305,17303,0,0,0
24122,28304,17339,0,0,0
24093,28284,17335,0,0,0
24045,28247,17295,0,0,0
23975,28198,17223,0,0,0
23890,28145,17128,0,0,0
23807,28092,17025,0,0,0
23733,28038,16923,0,0,0
23660,27982,16817,0,0,0
23589,27926,16711,0,0,0
23520,27868,16612,0,0,0
23451,27810,16518,0,0,0
23386,27760,16430,0,0,0
23331,27725,16357,0,0,0
23286,27701,16298,0,0,0
23245,27677,16239,0,0,0
23203,27654,16179,0,0,0
23164,27632,16121,0,0,0
23127,27608,16071,0,0,0
23091,27579,16019,0,0,0
23052,27547,15955,0,0,0
23009,27509,15879,0,0,0
22965,27464,15795,0,0,0
22916,27418,15705,0,0,0
22857,27373,15605,0,0,0
22791,27326,15500,0,0,0
22720,27271,15396,0,0,0
22651,27216,15291,0,0,0
22586,27165,15187,0,0,0
22523,27116,15090,0,0,0
22461,27067,15004,0,0,0
22406,27025,14925,0,0,0
22360,26992,14854,0,0,0
22328,26970,14804,0,0,0
22311,26956,14779,0,0,0
22302,26948,14767,0,0,0
22300,26950,14761,0,0,0
22313,26960,14774,0,0,0
22340,26975,14803,0,0,0
22371,26995,14835,0,0,0
22406,27017,14868,0,0,0
22444,27044,14908,0,0,0
22476,27075,14959,0,0,0
22504,27103,15010,0,0,0
22529,27125,15060,0,0,0
22550,27141,15108,0,0,0
22569,27149,15145,0,0,0
22587,27155,15171,0,0,0
22601,27166,15192,0,0,0
22610,27178,15211,0,0,0
22616,27184,15223,0,0,0
22620,27186,15222,0,0,0
22618,27186,15210,0,0,0
22612,27179,15192,0,0,0
22598,27165,15165,0,0,0
22573,27144,15120,0,0,0
22541,27116,15054,0,0,0
22505,27081,14975,0,0,0
22457,27037,14882,0,0,0
22394,26988,14773,0,0,0
22323,26933,14654,0,0,0
22247,26872,14534,0,0,0
22167,26812,14416,0,0,0
22081,26757,14295,0,0,0
21988,26700,14168,0,0,0
21891,26633,14034,0,0,0
21797,26560,13901,0,0,0
21709,26492,13772,0,0,0
21624,26427,13645,0,0,0
21543,26361,13521,0,0,0
21466,26298,13399,0,0,0
21392,26237,13277,0,0,0
21320,26176,13157,0,0,0
21250,26117,13043,0,0,0
21177,26058,12927,0,0,0
21102,25999,12805,0,0,0
21032,25944,12687,0,0,0
20972,25895,12578,0,0,0
20918,25854,12479,0,0,0
20867,25820,12389,0,0,0
20820,25789,12316,0,0,0
20775,25758,12259,0,0,0
20726,25729,12209,0,0,0
20675,25702,12156,0,0,0
20629,25672,12104,0,0,0
20587,25638,12054,0,0,0
20546,25604,12002,0,0,0
20511,25573,11952,0,0,0
20485,25549,11906,0,0,0
20460,25527,11859,0,0,0
20432,25508,11807,0,0,0
20408,25491,11754,0,0,0
20389,25474,11705,0,0,0
20367,25453,11654,0,0,0
20336,25426,11591,0,0,0
20302,25397,11520,0,0,0
20272,25371,11453,0,0,0
20247,25349,11394,0,0,0
20218,25328,11337,0,0,0
20181,25304,11275,0,0,0
20143,25273,11211,0,0,0
20103,25238,11148,0,0,0
20059,25207,11083,0,0,0
20015,25178,11020,0,0,0
19974,25149,10962,0,0,0
19935,25121,10907,0,0,0
19898,25100,10849,0,0,0
19865,25084,10794,0,0,0
19833,25065,10745,0,0,0
19797,25038,10691,0,0,0
19757,25006,10628,0,0,0
19720,24972,10563,0,0,0
19682,24935,10500,0,0,0
19636,24893,10431,0,0,0
19587,24849,10358,0,0,0
19543,24809,10289,0,0,0
19499,24773,10223,0,0,0
19449,24734,10152,0,0,0
19397,24693,10075,0,0,0
19346,24657,10001,0,0,0
19294,24626,9933,0,0,0
19243,24599,9864,0,0,0
19198,24571,9795,0,0,0
19153,24539,9725,0,0,0
19105,24500,9652,0,0,0
19054,24455,9575,0,0,0
19003,24413,9496,0,0,0
18953,24371,9420,0,0,0
18903,24329,9346,0,0,0
18849,24289,9269,0,0,0
18790,24253,9189,0,0,0
18732,24218,9108,0,0,0
18675,24182,9021,0,0,0
18622,24146,8930,0,0,0
18570,24111,8842,0,0,0
18518,24074,8756,0,0,0
18462,24032,8667,0,0,0
18405,23987,8575,0,0,0
18349,23945,8484,0,0,0
18292,23899,8395,0,0,0
18227,23847,8305,0,0,0
18157,23795,8213,0,0,0
18091,23749,8120,0,0,0
18024,23704,8023,0,0,0
17952,23653,7922,0,0,0
17878,23602,7818,0,0,0
17814,23558,7719,0,0,0
17761,23517,7625,0,0,0
17710,23481,7539,0,0,0
17663,23451,7473,0,0,0
17631,23431,7432,0,0,0
17625,23428,7429,0,0,0
17663,23454,7481,0,0,0
17749,23516,7597,0,0,0
17888,23621,7789,0,0,0
18089,23770,8077,0,0,0
18353,23964,8461,0,0,0
18678,24206,8938,0,0,0
19066,24498,9510,0,0,0
19515,24834,10166,0,0,0
20007,25202,10881,0,0,0
20531,25590,11640,0,0,0
21078,25992,12436,0,0,0
21636,26401,13250,0,0,0
22191,26811,14062,0,0,0
22733,27219,14855,0,0,0
23248,27612,15612,0,0,0
23728,27978,16321,0,0,0
24164,28316,16970,0,0,0
24554,28625,17552,0,0,0
24894,28898,18072,0,0,0
25182,29129,18525,0,0,0
25416,29321,18900,0,0,0
25600,29473,19202,0,0,0
25743,29585,19443,0,0,0
25848,29662,19624,0,0,0
25918,29712,19750,0,0,0
25957,29737,19828,0,0,0
25969,29739,19864,0,0,0
25957,29721,19859,0,0,0
25928,29691,19823,0,0,0
25890,29654,19770,0,0,0
25844,29609,19706,0,0,0
25788,29556,19631,0,0,0
25722,29504,19547,0,0,0
25657,29457,19464,0,0,0
25598,29411,19385,0,0,0
25543,29365,19306,0,0,0
25491,29324,19226,0,0,0
25449,29291,19158,0,0,0
25415,29264,19108,0,0,0
25383,29242,19073,0,0,0
25354,29225,19043,0,0,0
25330,29212,19015,0,0,0
25306,29199,18986,0,0,0
25283,29185,18952,0,0,0
25265,29170,18911,0,0,0
25248,29155,18866,0,0,0
25226,29134,18812,0,0,0
25196,29106,18742,0,0,0
25157,29071,18657,0,0,0
25111,29034,18565,0,0,0
25061,28995,18471,0,0,0
25001,28950,18374,0,0,0
24931,28899,18275,0,0,0
24866,28848,18185,0,0,0
24812,28803,18104,0,0,0
24769,28764,18027,0,0,0
24735,28736,17953,0,0,0
24714,28713,17895,0,0,0
24705,28695,17858,0,0,0
24701,28687,17838,0,0,0
24699,28691,17831,0,0,0
24702,28699,17835,0,0,0
24709,28707,17850,0,0,0
24720,28717,17867,0,0,0
24738,28734,17888,0,0,0
24768,28756,17923,0,0,0
24806,28778,17967,0,0,0
24844,28796,18004,0,0,0
24882,28816,18033,0,0,0
24923,28837,18063,0,0,0
24964,28855,18089,0,0,0
24993,28864,18105,0,0,0
25004,28865,18111,0,0,0
25000,28859,18108,0,0,0
24989,28852,18096,0,0,0
24974,28846,18074,0,0,0
24960,28838,18049,0,0,0
24943,28825,18021,0,0,0
24915,28804,17982,0,0,0
24878,28772,17926,0,0,0
24841,28734,17863,0,0,0
24797,28691,17794,0,0,0
24739,28642,17707,0,0,0
24669,28588,17601,0,0,0
24595,28532,17486,0,0,0
24520,28475,17368,0,0,0
24440,28416,17242,0,0,0
24355,28353,17110,0,0,0
24268,28286,16977,0,0,0
24179,28214,16843,0,0,0
24092,28141,16703,0,0,0
24006,28070,16558,0,0,0
23919,27997,16410,0,0,0
23821,27918,16259,0,0,0
23720,27838,16103,0,0,0
23627,27761,15950,0,0,0
23540,27690,15809,0,0,0
23453,27622,15678,0,0,0
23365,27560,15545,0,0,0
23283,27504,15415,0,0,0
23210,27453,15300,0,0,0
23142,27406,15198,0,0,0
23072,27361,15097,0,0,0
22998,27314,14991,0,0,0
22924,27263,14884,0,0,0
22856,27207,14780,0,0,0
22792,27154,14681,0,0,0
22734,27112,14590,0,0,0
22683,27077,14507,0,0,0
22631,27040,14425,0,0,0
22577,27001,14341,0,0,0
22526,26960,14260,0,0,0
22475,26917,14187,0,0,0
22416,26872,14117,0,0,0
22351,26824,14039,0,0,0
22290,26776,13952,0,0,0
22240,26729,13867,0,0,0
22195,26687,13785,0,0,0
22145,26652,13701,0,0,0
22093,26620,13617,0,0,0
22048,26589,13539,0,0,0
22009,26556,13466,0,0,0
21971,26528,13396,0,0,0
21934,26509,13332,0,0,0
21894,26494,13272,0,0,0
21848,26473,13213,0,0,0
21799,26451,13155,0,0,0
21758,26428,13101,0,0,0
21725,26401,13050,0,0,0
21692,26367,12999,0,0,0
21655,26331,12944,0,0,0
21617,26296,12883,0,0,0
21576,26257,12816,0,0,0
21531,26215,12739,0,0,0
21485,26171,12659,0,0,0
21441,26125,12582,0,0,0
21398,26076,12502,0,0,0
21351,26029,12414,0,0,0
21298,25987,12325,0,0,0
21242,25945,12239,0,0,0
21180,25900,12151,0,0,0
21113,25854,12059,0,0,0
21045,25809,11962,0,0,0
20979,25766,11866,0,0,0
20912,25722,11776,0,0,0
20846,25676,11685,0,0,0
20789,25633,11595,0,0,0
20740,25594,11511,0,0,0
20694,25555,11432,0,0,0
20643,25516,11353,0,0,0
20592,25480,11277,0,0,0
20541,25444,11202,0,0,0
20487,25404,11116,0,0,0
20430,25362,11019,0,0,0
20373,25317,10923,0,0,0
20316,25270,10835,0,0,0
20255,25220,10750,0,0,0
20187,25174,10659,0,0,0
20119,25134,10566,0,0,0
20054,25093,10474,0,0,0
19983,25046,10377,0,0,0
19904,24995,10270,0,0,0
19826,24942,10161,0,0,0
19753,24887,10053,0,0,0
19683,24830,9948,0,0,0
19617,24776,9846,0,0,0
19555,24726,9750,0,0,0
19493,24677,9660,0,0,0
19434,24627,9575,0,0,0
19378,24581,9493,0,0,0
19324,24538,9413,0,0,0
19268,24494,9331,0,0,0
19211,24446,9245,0,0,0
19152,24401,9154,0,0,0
19095,24357,9064,0,0,0
19038,24312,8973,0,0,0
18981,24264,8876,0,0,0
18923,24216,8776,0,0,0
18870,24173,8684,0,0,0
18825,24138,8610,0,0,0
18787,24114,8553,0,0,0
18765,24105,8524,0,0,0
18774,24120,8540,0,0,0
18820,24160,8613,0,0,0
18911,24235,8753,0,0,0
19062,24355,8976,0,0,0
19282,24522,9294,0,0,0
19570,24738,9709,0,0,0
19926,25006,10220,0,0,0
20344,25326,10825,0,0,0
20819,25691,11515,0,0,0
21337,26090,12270,0,0,0
21882,26510,13064,0,0,0
22448,26943,13883,0,0,0
23027,27381,14719,0,0,0
23596,27813,15557,0,0,0
24136,28230,16369,0,0,0
24644,28626,17133,0,0,0
25122,28996,17848,0,0,0
25562,29333,18510,0,0,0
25953,29632,19106,0,0,0
26293,29890,19627,0,0,0
26583,30106,20078,0,0,0
26823,30288,20455,0,0,0
27017,30439,20759,0,0,0
27166,30556,20995,0,0,0
27276,30637,21172,0,0,0
27349,30690,21291,0,0,0
27388,30722,21361,0,0,0
27398,30739,21400,0,0,0
27387,30738,21415,0,0,0
27356,30720,21405,0,0,0
27308,30694,21371,0,0,0
27257,30666,21324,0,0,0
27210,30633,21274,0,0,0
27164,30597,21219,0,0,0
27120,30564,21163,0,0,0
27087,30538,21116,0,0,0
27064,30516,21079,0,0,0
27048,30497,21047,0,0,0
27039,30486,21023,0,0,0
27038,30481,21013,0,0,0
27041,30477,21018,0,0,0
27048,30477,21033,0,0,0
27061,30484,21055,0,0,0
27077,30493,21079,0,0,0
27093,30502,21101,0,0,0
27106,30505,21111,0,0,0
27113,30507,21107,0,0,0
27111,30504,21096,0,0,0
27098,30493,21072,0,0,0
27069,30473,21024,0,0,0
27034,30448,20955,0,0,0
26998,30419,20880,0,0,0
26957,30382,20797,0,0,0
26904,30337,20697,0,0,0
26842,30283,20582,0,0,0
26775,30223,20462,0,0,0
26702,30158,20341,0,0,0
26619,30094,20216,0,0,0
26533,30033,20093,0,0,0
26452,29973,19988,0,0,0
26380,29913,19897,0,0,0
26316,29861,19810,0,0,0
26262,29818,19730,0,0,0
26213,29782,19661,0,0,0
26166,29749,19601,0,0,0
26127,29720,19544,0,0,0
26096,29698,19494,0,0,0
26072,29683,19453,0,0,0
26051,29668,19414,0,0,0
26037,29656,19375,0,0,0
26032,29651,19350,0,0,0
26032,29648,19341,0,0,0
26031,29641,19335,0,0,0
26028,29633,19328,0,0,0
26027,29628,19326,0,0,0
26025,29623,19321,0,0,0
26019,29614,19303,0,0,0
26010,29604,19274,0,0,0
25995,29588,19240,0,0,0
25967,29564,19198,0,0,0
25932,29534,19143,0,0,0
25892,29501,19080,0,0,0
25846,29463,19008,0,0,0
25788,29417,18923,0,0,0
25721,29368,18819,0,0,0
25651,29320,18703,0,0,0
25578,29269,18586,0,0,0
25498,29210,18468,0,0,0
25408,29144,18344,0,0,0
25311,29078,18210,0,0,0
25213,29009,18072,0,0,0
25114,28934,17931,0,0,0
25011,28853,17781,0,0,0
24910,28775,17628,0,0,0
24817,28702,17483,0,0,0
24729,28632,17351,0,0,0
24640,28562,17219,0,0,0
24552,28494,17082,0,0,0
24470,28427,16947,0,0,0
24393,28361,16814,0,0,0
24314,28300,16682,0,0,0
24233,28239,16556,0,0,0
24153,28177,16443,0,0,0
24075,28116,16338,0,0,0
23998,28060,16237,0,0,0
23925,28011,16143,0,0,0
23859,27965,16060,0,0,0
23800,27920,15980,0,0,0
23746,27875,15897,0,0,0
23699,27835,15813,0,0,0
23658,27798,15735,0,0,0
23616,27761,15658,0,0,0
23571,27726,15578,0,0,0
23530,27696,15502,0,0,0
23497,27669,15434,0,0,0
23459,27635,15365,0,0,0
23410,27599,15288,0,0,0
23364,27565,15209,0,0,0
23320,27528,15132,0,0,0
23270,27487,15054,0,0,0
23210,27444,14974,0,0,0
23148,27403,14896,0,0,0
23089,27357,14819,0,0,0
23032,27310,14736,0,0,0
22977,27267,14650,0,0,0
22928,27230,14566,0,0,0
22883,27191,14487,0,0,0
22836,27153,14413,0,0,0
22786,27120,14346,0,0,0
22740,27092,14287,0,0,0
22694,27060,14226,0,0,0
22646,27024,14151,0,0,0
22591,26986,14065,0,0,0
22528,26945,13980,0,0,0
22462,26898,13896,0,0,0
22398,26849,13808,0,0,0
22338,26803,13716,0,0,0
22281,26757,13627,0,0,0
22217,26707,13535,0,0,0
22143,26653,13434,0,0,0
22068,26599,13327,0,0,0
22002,26549,13226,0,0,0
21943,26502,13129,0,0,0
21880,26458,13030,0,0,0
21813,26413,12928,0,0,0
21749,26365,12833,0,0,0
21691,26317,12745,0,0,0
21637,26276,12660,0,0,0
21584,26240,12576,0,0,0
21531,26202,12493,0,0,0
21479,26161,12411,0,0,0
21425,26118,12324,0,0,0
21370,26075,12241,0,0,0
21315,26030,12165,0,0,0
21257,25983,12088,0,0,0
21195,25934,12006,0,0,0
21130,25889,11925,0,0,0
21066,25846,11845,0,0,0
20996,25801,11757,0,0,0
20922,25754,11658,0,0,0
20847,25707,11556,0,0,0
20775,25661,11456,0,0,0
20704,25614,11353,0,0,0
20638,25567,11251,0,0,0
20579,25520,11158,0,0,0
20525,25476,11074,0,0,0
20474,25434,10992,0,0,0
20427,25392,10910,0,0,0
20383,25347,10827,0,0,0
20343,25302,10745,0,0,0
20301,25260,10658,0,0,0
20256,25222,10570,0,0,0
20205,25184,10481,0,0,0
20149,25142,10390,0,0,0
20090,25096,10291,0,0,0
20027,25050,10185,0,0,0
19963,25003,10079,0,0,0
19895,24952,9974,0,0,0
19820,24895,9862,0,0,0
19740,24837,9747,0,0,0
19662,24782,9638,0,0,0
19584,24727,9533,0,0,0
19506,24675,9431,0,0,0
19432,24628,9341,0,0,0
19371,24590,9275,0,0,0
19333,24567,9240,0,0,0
19328,24572,9254,0,0,0
19368,24613,9335,0,0,0
19469,24694,9497,0,0,0
19634,24821,9744,0,0,0
19866,25001,10084,0,0,0
20168,25238,10525,0,0,0
20540,25526,11065,0,0,0
20969,25855,11681,0,0,0
21446,26221,12362,0,0,0
21968,26621,13105,0,0,0
22526,27045,13902,0,0,0
23099,27477,14728,0,0,0
23670,27911,15562,0,0,0
24226,28333,16382,0,0,0
24757,28732,17172,0,0,0
25253,29108,17913,0,0,0
25709,29460,18594,0,0,0
26115,29775,19207,0,0,0
26468,30044,19750,0,0,0
26770,30274,20217,0,0,0
27026,30473,20609,0,0,0
27231,30639,20929,0,0,0
27388,30767,21181,0,0,0
27502,30861,21370,0,0,0
27581,30928,21505,0,0,0
27630,30973,21597,0,0,0
27654,30995,21646,0,0,0
27655,30996,21655,0,0,0
27635,30981,21632,0,0,0
27597,30953,21589,0,0,0
27543,30916,21529,0,0,0
27477,30874,21451,0,0,0
27407,30829,21365,0,0,0
27338,30777,21280,0,0,0
27272,30722,21199,0,0,0
27212,30673,21123,0,0,0
27162,30632,21060,0,0,0
27126,30598,21014,0,0,0
27093,30567,20976,0,0,0
27058,30540,20938,0,0,0
27026,30519,20904,0,0,0
27007,30504,20882,0,0,0
26999,30491,20866,0,0,0
26988,30479,20847,0,0,0
26967,30465,20823,0,0,0
26942,30451,20795,0,0,0
26918,30437,20760,0,0,0
26889,30417,20710,0,0,0
26851,30390,20647,0,0,0
26803,30353,20572,0,0,0
26742,30303,20478,0,0,0
26671,30242,20363,0,0,0
26591,30175,20240,0,0,0
26504,30105,20118,0,0,0
26405,30030,19990,0,0,0
26297,29952,19852,0,0,0
26190,29875,19717,0,0,0
26088,29795,19585,0,0,0
25985,29714,19450,0,0,0
25886,29640,19315,0,0,0
25799,29574,19189,0,0,0
25726,29514,19074,0,0,0
25665,29461,18969,0,0,0
25620,29419,18879,0,0,0
25589,29386,18806,0,0,0
25564,29360,18742,0,0,0
25542,29341,18689,0,0,0
25522,29329,18653,0,0,0
25504,29322,18636,0,0,0
25488,29314,18629,0,0,0
25477,29307,18624,0,0,0
25474,29303,18618,0,0,0
25473,29302,18613,0,0,0
25471,29298,18603,0,0,0
25464,29286,18584,0,0,0
25451,29269,18559,0,0,0
25430,29249,18530,0,0,0
25399,29225,18488,0,0,0
25355,29195,18427,0,0,0
25307,29162,18356,0,0,0
25257,29128,18280,0,0,0
25199,29087,18193,0,0,0
25137,29040,18092,0,0,0
25072,28991,17984,0,0,0
25001,28937,17875,0,0,0
24919,28875,17761,0,0,0
24829,28808,17638,0,0,0
24737,28742,17511,0,0,0
24645,28676,17382,0,0,0
24551,28606,17247,0,0,0
24454,28533,17106,0,0,0
24355,28459,16964,0,0,0
24251,28384,16827,0,0,0
24149,28310,16690,0,0,0
24051,28237,16548,0,0,0
23957,28164,16403,0,0,0
23864,28090,16260,0,0,0
23765,28012,16110,0,0,0
23663,27934,15952,0,0,0
23564,27860,15801,0,0,0
23465,27787,15662,0,0,0
23361,27715,15526,0,0,0
23256,27645,15385,0,0,0
23159,27572,15246,0,0,0
23068,27500,15113,0,0,0
22979,27433,14982,0,0,0
22895,27373,14856,0,0,0
22816,27313,14739,0,0,0
22733,27248,14624,0,0,0
22646,27183,14503,0,0,0
22565,27124,14380,0,0,0
22489,27066,14263,0,0,0
22412,27008,14149,0,0,0
22332,26951,14032,0,0,0
22253,26899,13917,0,0,0
22181,26849,13814,0,0,0
22111,26798,13720,0,0,0
22040,26745,13626,0,0,0
21972,26693,13531,0,0,0
21910,26642,13446,0,0,0
21853,26598,13374,0,0,0
21799,26559,13301,0,0,0
21751,26523,13226,0,0,0
21711,26488,13152,0,0,0
21673,26455,13077,0,0,0
21634,26424,12999,0,0,0
21595,26393,12922,0,0,0
21555,26358,12849,0,0,0
21510,26317,12774,0,0,0
21462,26274,12693,0,0,0
21416,26232,12613,0,0,0
21370,26194,12542,0,0,0
21321,26156,12474,0,0,0
21270,26120,12400,0,0,0
21226,26090,12325,0,0,0
21184,26063,12254,0,0,0
21131,26034,12183,0,0,0
21068,26003,12105,0,0,0
21004,25966,12023,0,0,0
20937,25922,11936,0,0,0
20867,25870,11837,0,0,0
20798,25817,11733,0,0,0
20731,25766,11630,0,0,0
20664,25712,11526,0,0,0
20592,25657,11422,0,0,0
20519,25608,11320,0,0,0
20448,25560,11222,0,0,0
20379,25509,11126,0,0,0
20310,25461,11029,0,0,0
20242,25418,10936,0,0,0
20175,25376,10850,0,0,0
20111,25330,10765,0,0,0
20046,25285,10671,0,0,0
19983,25243,10574,0,0,0
19928,25200,10484,0,0,0
19880,25156,10401,0,0,0
19832,25116,10319,0,0,0
19781,25079,10240,0,0,0
19727,25040,10164,0,0,0
19668,24997,10082,0,0,0
19609,24957,9997,0,0,0
19554,24921,9915,0,0,0
19498,24882,9840,0,0,0
19436,24835,9763,0,0,0
19366,24785,9682,0,0,0
19294,24735,9601,0,0,0
19223,24684,9518,0,0,0
19153,24628,9428,0,0,0
19081,24572,9325,0,0,0
19011,24516,9215,0,0,0
18950,24463,9112,0,0,0
18892,24416,9014,0,0,0
18833,24373,8917,0,0,0
18773,24330,8820,0,0,0
18708,24284,8724,0,0,0
18641,24237,8625,0,0,0
18575,24190,8516,0,0,0
18509,24141,8404,0,0,0
18440,24088,8295,0,0,0
18364,24035,8187,0,0,0
18284,23983,8075,0,0,0
18212,23935,7970,0,0,0
18153,23895,7878,0,0,0
18107,23863,7803,0,0,0
18076,23847,7752,0,0,0
18072,23850,7744,0,0,0
18103,23875,7794,0,0,0
18183,23936,7913,0,0,0
18322,24041,8120,0,0,0
18522,24193,8423,0,0,0
18784,24391,8819,0,0,0
19112,24643,9304,0,0,0
19505,24943,9874,0,0,0
19953,25280,10523,0,0,0
20442,25643,11234,0,0,0
20959,26028,11984,0,0,0
21494,26431,12758,0,0,0
22043,26845,13553,0,0,0
22593,27260,14355,0,0,0
23125,27669,15138,0,0,0
23631,28060,15889,0,0,0
24108,28424,16597,0,0,0
24546,28755,17244,0,0,0
24935,29052,17814,0,0,0
25268,29313,18309,0,0,0
25547,29532,18733,0,0,0
25772,29708,19082,0,0,0
25943,29846,19354,0,0,0
26062,29944,19552,0,0,0
26139,30004,19687,0,0,0
26174,30030,19762,0,0,0
26173,30033,19783,0,0,0
26147,30016,19763,0,0,0
26098,29978,19711,0,0,0
26026,29918,19627,0,0,0
25941,29849,19515,0,0,0
25857,29776,19390,0,0,0
25772,29701,19261,0,0,0
25682,29628,19131,0,0,0
25590,29560,19000,0,0,0
25496,29492,18872,0,0,0
25406,29426,18750,0,0,0
25324,29366,18639,0,0,0
25253,29312,18539,0,0,0
25193,29264,18453,0,0,0
25140,29222,18385,0,0,0
25093,29187,18325,0,0,0
25050,29156,18264,0,0,0
25013,29127,18205,0,0,0
24980,29097,18149,0,0,0
24941,29062,18086,0,0,0
24890,29025,18012,0,0,0
24833,28987,17933,0,0,0
24770,28943,17849,0,0,0
24692,28892,17749,0,0,0
24604,28837,17635,0,0,0
24515,28780,17517,0,0,0
24426,28717,17396,0,0,0
24336,28651,17271,0,0,0
24250,28589,17148,0,0,0
24172,28528,17035,0,0,0
24099,28467,16933,0,0,0
24031,28410,16838,0,0,0
23976,28361,16751,0,0,0
23939,28327,16680,0,0,0
23914,28303,16626,0,0,0
23896,28284,16583,0,0,0
23885,28267,16552,0,0,0
23887,28260,16545,0,0,0
23898,28264,16555,0,0,0
23910,28277,16570,0,0,0
23926,28292,16589,0,0,0
23948,28305,16618,0,0,0
23974,28316,16658,0,0,0
24001,28333,16701,0,0,0
24026,28359,16745,0,0,0
24049,28384,16790,0,0,0
24071,28405,16828,0,0,0
24092,28425,16854,0,0,0
24114,28446,16871,0,0,0
24131,28462,16881,0,0,0
24134,28468,16872,0,0,0
24124,28460,16842,0,0,0
24106,28442,16797,0,0,0
24076,28412,16737,0,0,0
24031,28373,16660,0,0,0
23976,28331,16574,0,0,0
23911,28284,16484,0,0,0
23837,28230,16388,0,0,0
23760,28171,16283,0,0,0
23685,28116,16170,0,0,0
23612,28060,16056,0,0,0
23532,27997,15941,0,0,0
23448,27931,15818,0,0,0
23367,27866,15688,0,0,0
23285,27802,15558,0,0,0
23201,27738,15432,0,0,0
23116,27675,15305,0,0,0
23034,27614,15173,0,0,0
22961,27555,15046,0,0,0
22895,27495,14926,0,0,0
22824,27433,14802,0,0,0
22748,27370,14671,0,0,0
22672,27307,14545,0,0,0
22597,27242,14428,0,0,0
22523,27180,14316,0,0,0
22452,27125,14210,0,0,0
22381,27076,14108,0,0,0
22311,27025,14004,0,0,0
22246,26976,13895,0,0,0
22192,26932,13795,0,0,0
22144,26889,13710,0,0,0
22092,26843,13631,0,0,0
22036,26798,13550,0,0,0
21980,26757,13469,0,0,0
21924,26717,13390,0,0,0
21870,26681,13313,0,0,0
21816,26648,13237,0,0,0
21765,26618,13163,0,0,0
21716,26586,13095,0,0,0
21669,26554,13024,0,0,0
21626,26521,12947,0,0,0
21581,26485,12866,0,0,0
21534,26446,12787,0,0,0
21489,26406,12712,0,0,0
21447,26367,12638,0,0,0
21403,26329,12566,0,0,0
21357,26293,12498,0,0,0
21314,26259,12432,0,0,0
21280,26229,12367,0,0,0
21253,26205,12309,0,0,0
21225,26182,12258,0,0,0
21192,26155,12204,0,0,0
21153,26127,12146,0,0,0
21119,26102,12090,0,0,0
21090,26078,12035,0,0,0
21057,26050,11972,0,0,0
21019,26015,11901,0,0,0
20981,25976,11832,0,0,0
20942,25939,11766,0,0,0
20903,25907,11701,0,0,0
20863,25882,11639,0,0,0
20821,25858,11582,0,0,0
20776,25831,11524,0,0,0
20730,25800,11463,0,0,0
20686,25769,11399,0,0,0
20643,25738,11337,0,0,0
20596,25701,11275,0,0,0
20543,25659,11203,0,0,0
20489,25620,11121,0,0,0
20436,25585,11045,0,0,0
20386,25552,10972,0,0,0
20337,25522,10891,0,0,0
20290,25491,10798,0,0,0
20246,25457,10705,0,0,0
20206,25420,10622,0,0,0
20165,25382,10546,0,0,0
20120,25345,10469,0,0,0
20073,25303,10395,0,0,0
20027,25256,10317,0,0,0
19981,25210,10233,0,0,0
19932,25168,10149,0,0,0
19879,25125,10069,0,0,0
19822,25081,9986,0,0,0
19762,25038,9897,0,0,0
19702,24999,9814,0,0,0
19644,24961,9737,0,0,0
19579,24921,9656,0,0,0
19508,24877,9570,0,0,0
19439,24833,9483,0,0,0
19368,24785,9389,0,0,0
19294,24734,9287,0,0,0
19222,24687,9180,0,0,0
19148,24639,9070,0,0,0
19072,24584,8955,0,0,0
18995,24526,8837,0,0,0
18920,24469,8721,0,0,0
18851,24412,8613,0,0,0
18791,24357,8513,0,0,0
18736,24307,8420,0,0,0
18690,24267,8343,0,0,0
18668,24246,8298,0,0,0
18680,24252,8301,0,0,0
18728,24292,8365,0,0,0
18822,24371,8502,0,0,0
18976,24491,8725,0,0,0
19192,24658,9038,0,0,0
19474,24873,9442,0,0,0
19826,25139,9944,0,0,0
20242,25450,10541,0,0,0
20707,25799,11216,0,0,0
21210,26181,11948,0,0,0
21745,26589,12726,0,0,0
22298,27002,13537,0,0,0
22849,27415,14355,0,0,0
23390,27829,15157,0,0,0
23919,28240,15929,0,0,0
24425,28632,16663,0,0,0
24892,28991,17345,0,0,0
25312,29315,17965,0,0,0
25680,29602,18516,0,0,0
25998,29849,18997,0,0,0
26263,30056,19406,0,0,0
26475,30225,19744,0,0,0
26636,30355,20015,0,0,0
26746,30444,20216,0,0,0
26814,30499,20352,0,0,0
26845,30529,20433,0,0,0
26844,30533,20471,0,0,0
26814,30514,20470,0,0,0
26761,30480,20428,0,0,0
26692,30433,20349,0,0,0
26611,30372,20247,0,0,0
26520,30296,20133,0,0,0
26421,30208,20004,0,0,0
26317,30120,19859,0,0,0
26214,30037,19712,0,0,0
26116,29962,19569,0,0,0
26029,29896,19437,0,0,0
25955,29842,19321,0,0,0
25892,29795,19224,0,0,0
25837,29754,19142,0,0,0
25787,29719,19067,0,0,0
25746,29691,18996,0,0,0
25713,29662,18933,0,0,0
25682,29631,18873,0,0,0
25648,29600,18814,0,0,0
25609,29569,18753,0,0,0
25565,29533,18686,0,0,0
25514,29488,18611,0,0,0
25455,29435,18523,0,0,0
25389,29380,18425,0,0,0
25317,29324,18328,0,0,0
25241,29266,18231,0,0,0
25163,29205,18128,0,0,0
25087,29145,18020,0,0,0
25018,29087,17913,0,0,0
24953,29035,17809,0,0,0
24892,28991,17712,0,0,0
24843,28956,17630,0,0,0
24804,28926,17564,0,0,0
24770,28898,17508,0,0,0
24743,28876,17461,0,0,0
24730,28864,17428,0,0,0
24736,28863,17412,0,0,0
24753,28869,17407,0,0,0
24776,28880,17409,0,0,0
24806,28895,17420,0,0,0
24851,28920,17454,0,0,0
24915,28959,17512,0,0,0
24997,29009,17590,0,0,0
25077,29056,17679,0,0,0
25127,29082,17749,0,0,0
25120,29072,17761,0,0,0
25049,29023,17696,0,0,0
24921,28936,17558,0,0,0
24745,28814,17359,0,0,0
24529,28664,17105,0,0,0
24290,28499,16808,0,0,0
24045,28329,16493,0,0,0
23796,28155,16176,0,0,0
23543,27980,15856,0,0,0
23295,27812,15538,0,0,0
23062,27647,15233,0,0,0
22841,27482,14941,0,0,0
22631,27324,14660,0,0,0
22436,27181,14390,0,0,0
22257,27047,14135,0,0,0
22088,26921,13890,0,0,0
21929,26801,13655,0,0,0
21780,26687,13431,0,0,0
21635,26577,13218,0,0,0
21491,26472,13014,0,0,0
21351,26378,12819,0,0,0
21221,26290,12631,0,0,0
21097,26200,12451,0,0,0
20971,26104,12273,0,0,0
20845,26010,12094,0,0,0
20730,25925,11924,0,0,0
20629,25846,11773,0,0,0
20532,25767,11631,0,0,0
20433,25691,11489,0,0,0
20336,25620,11346,0,0,0
20247,25554,11204,0,0,0
20166,25489,11067,0,0,0
20084,25427,10934,0,0,0
19996,25368,10804,0,0,0
19906,25306,10680,0,0,0
19821,25243,10559,0,0,0
19741,25181,10441,0,0,0
19666,25122,10329,0,0,0
19593,25065,10223,0,0,0
19522,25011,10114,0,0,0
19457,24961,10001,0,0,0
19402,24915,9897,0,0,0
19351,24874,9808,0,0,0
19298,24838,9724,0,0,0
19243,24803,9637,0,0,0
19189,24767,9551,0,0,0
19131,24727,9464,0,0,0
19068,24684,9374,0,0,0
19004,24643,9284,0,0,0
18943,24601,9195,0,0,0
18878,24554,9106,0,0,0
18810,24507,9019,0,0,0
18743,24466,8933,0,0,0
18679,24429,8852,0,0,0
18619,24390,8777,0,0,0
18562,24352,8702,0,0,0
18510,24316,8628,0,0,0
18462,24278,8555,0,0,0
18416,24237,8482,0,0,0
18371,24201,8413,0,0,0
18334,24177,8352,0,0,0
18307,24159,8299,0,0,0
18285,24142,8250,0,0,0
18267,24126,8203,0,0,0
18252,24112,8162,0,0,0
18239,24096,8128,0,0,0
18225,24078,8095,0,0,0
18210,24061,8059,0,0,0
18200,24049,8023,0,0,0
18192,24036,7991,0,0,0
18181,24019,7957,0,0,0
18165,24004,7921,0,0,0
18146,23990,7882,0,0,0
18127,23973,7839,0,0,0
18107,23956,7795,0,0,0
18083,23939,7749,0,0,0
18056,23921,7699,0,0,0
18022,23900,7648,0,0,0
17985,23877,7597,0,0,0
17952,23855,7544,0,0,0
17924,23835,7493,0,0,0
17899,23816,7444,0,0,0
17871,23797,7393,0,0,0
17842,23776,7335,0,0,0
17815,23751,7276,0,0,0
17787,23720,7217,0,0,0
17751,23684,7149,0,0,0
17711,23648,7069,0,0,0
17673,23615,6984,0,0,0
17629,23578,6900,0,0,0
17578,23540,6815,0,0,0
17522,23503,6728,0,0,0
17461,23467,6643,0,0,0
17398,23427,6559,0,0,0
17337,23384,6472,0,0,0
17279,23342,6386,0,0,0
17221,23301,6303,0,0,0
17161,23252,6219,0,0,0
17092,23194,6127,0,0,0
17022,23135,6029,0,0,0
16955,23076,5929,0,0,0
16884,23014,5822,0,0,0
16807,22952,5712,0,0,0
16724,22892,5597,0,0,0
16634,22827,5477,0,0,0
16537,22757,5350,0,0,0
16440,22688,5218,0,0,0
16347,22626,5088,0,0,0
16257,22568,4966,0,0,0
16167,22510,4851,0,0,0
16088,22462,4748,0,0,0
16037,22436,4679,0,0,0
16024,22439,4667,0,0,0
16055,22477,4721,0,0,0
16133,22557,4848,0,0,0
16269,22678,5056,0,0,0
16470,22840,5356,0,0,0
16743,23050,5754,0,0,0
17089,23310,6252,0,0,0
17502,23615,6846,0,0,0
17971,23959,7524,0,0,0
18483,24329,8260,0,0,0
19022,24719,9037,0,0,0
19581,25123,9847,0,0,0
20148,25534,10675,0,0,0
20708,25944,11496,0,0,0
21250,26349,12293,0,0,0
21769,26739,13052,0,0,0
22256,27102,13762,0,0,0
22705,27435,14416,0,0,0
23111,27739,15006,0,0,0
23463,28009,15527,0,0,0
23759,28237,15974,0,0,0
24003,28425,16344,0,0,0
24198,28575,16636,0,0,0
24351,28690,16860,0,0,0
24466,28772,17028,0,0,0
24539,28824,17146,0,0,0
24577,28850,17217,0,0,0
24587,28855,17248,0,0,0
24576,28845,17245,0,0,0
24549,28827,17213,0,0,0
24512,28803,17162,0,0,0
24471,28772,17102,0,0,0
24429,28735,17040,0,0,0
24391,28701,16978,0,0,0
24367,28681,16927,0,0,0
24363,28676,16905,0,0,0
24377,28685,16910,0,0,0
24411,28702,16939,0,0,0
24466,28732,16996,0,0,0
24541,28777,17081,0,0,0
24630,28836,17189,0,0,0
24727,28907,17311,0,0,0
24836,28986,17446,0,0,0
24951,29065,17587,0,0,0
25063,29137,17720,0,0,0
25169,29205,17841,0,0,0
25268,29268,17953,0,0,0
25355,29322,18053,0,0,0
25418,29360,18127,0,0,0
25455,29384,18169,0,0,0
25473,29399,18187,0,0,0
25473,29403,18185,0,0,0
25456,29395,18162,0,0,0
25429,29378,18123,0,0,0
25401,29353,18079,0,0,0
25375,29323,18035,0,0,0
25352,29295,17992,0,0,0
25331,29273,17952,0,0,0
25313,29258,17918,0,0,0
25299,29245,17889,0,0,0
25287,29235,17863,0,0,0
25276,29229,17840,0,0,0
25270,29226,17829,0,0,0
25272,29225,17828,0,0,0
25277,29227,17825,0,0,0
25281,29229,17815,0,0,0
25286,29227,17803,0,0,0
25295,29221,17795,0,0,0
25301,29214,17794,0,0,0
25303,29209,17797,0,0,0
25298,29203,17799,0,0,0
25283,29193,17791,0,0,0
25256,29178,17767,0,0,0
25222,29158,17733,0,0,0
25183,29128,17694,0,0,0
25136,29087,17643,0,0,0
25076,29039,17572,0,0,0
25010,28988,17484,0,0,0
24946,28933,17389,0,0,0
24882,28873,17290,0,0,0
24811,28810,17185,0,0,0
24733,28746,17072,0,0,0
24658,28687,16954,0,0,0
24584,28631,16835,0,0,0
24503,28577,16710,0,0,0
24414,28522,16578,0,0,0
24322,28460,16440,0,0,0
24231,28391,16295,0,0,0
24139,28318,16140,0,0,0
24040,28241,15977,0,0,0
23933,28160,15813,0,0,0
23818,28074,15645,0,0,0
23704,27989,15478,0,0,0
23599,27908,15323,0,0,0
23498,27829,15182,0,0,0
23388,27747,15036,0,0,0
23272,27665,14881,0,0,0
23160,27586,14726,0,0,0
23057,27503,14576,0,0,0
22957,27419,14427,0,0,0
22857,27336,14280,0,0,0
22757,27254,14135,0,0,0
22654,27170,13992,0,0,0
22555,27096,13849,0,0,0
22464,27032,13713,0,0,0
22382,26971,13590,0,0,0
22304,26905,13475,0,0,0
22229,26841,13361,0,0,0
22161,26787,13248,0,0,0
22105,26744,13143,0,0,0
22057,26704,13048,0,0,0
22013,26666,12962,0,0,0
21968,26632,12884,0,0,0
21923,26599,12813,0,0,0
21879,26565,12745,0,0,0
21840,26531,12675,0,0,0
21802,26496,12600,0,0,0
21758,26459,12522,0,0,0
21710,26418,12441,0,0,0
21659,26379,12360,0,0,0
21608,26345,12283,0,0,0
21557,26313,12211,0,0,0
21504,26278,12133,0,0,0
21448,26242,12050,0,0,0
21392,26206,11968,0,0,0
21339,26167,11889,0,0,0
21288,26124,11809,0,0,0
21232,26079,11725,0,0,0
21169,26033,11639,0,0,0
21104,25983,11549,0,0,0
21042,25929,11453,0,0,0
20987,25874,11353,0,0,0
20935,25823,11255,0,0,0
20885,25775,11165,0,0,0
20833,25728,11077,0,0,0
20778,25686,10990,0,0,0
20725,25652,10910,0,0,0
20673,25623,10832,0,0,0
20618,25595,10755,0,0,0
20561,25567,10679,0,0,0
20504,25536,10607,0,0,0
20446,25501,10533,0,0,0
20393,25463,10452,0,0,0
20346,25424,10367,0,0,0
20302,25384,10287,0,0,0
20255,25343,10211,0,0,0
20205,25302,10126,0,0,0
20152,25258,10029,0,0,0
20104,25214,9934,0,0,0
20058,25172,9845,0,0,0
20008,25130,9757,0,0,0
19951,25088,9669,0,0,0
19890,25044,9581,0,0,0
19827,24996,9493,0,0,0
19765,24951,9407,0,0,0
19706,24911,9327,0,0,0
19654,24873,9255,0,0,0
19609,24836,9188,0,0,0
19564,24797,9115,0,0,0
19515,24755,9032,0,0,0
19465,24710,8944,0,0,0
19408,24662,8856,0,0,0
19342,24610,8760,0,0,0
19271,24560,8655,0,0,0
19199,24511,8549,0,0,0
19125,24461,8444,0,0,0
19051,24412,8337,0,0,0
18980,24362,8224,0,0,0
18905,24306,8106,0,0,0
18822,24243,7984,0,0,0
18735,24181,7864,0,0,0
18650,24123,7751,0,0,0
18570,24067,7643,0,0,0
18488,24009,7533,0,0,0
18405,23951,7420,0,0,0
18330,23897,7311,0,0,0
18263,23845,7208,0,0,0
18199,23794,7107,0,0,0
18135,23743,7005,0,0,0
18072,23692,6903,0,0,0
18005,23637,6797,0,0,0
17936,23580,6683,0,0,0
17864,23525,6560,0,0,0
17786,23467,6431,0,0,0
17695,23401,6299,0,0,0
17596,23330,6164,0,0,0
17500,23262,6033,0,0,0
17417,23202,5920,0,0,0
17355,23155,5837,0,0,0
17323,23133,5795,0,0,0
17332,23148,5814,0,0,0
17396,23205,5912,0,0,0
17521,23306,6103,0,0,0
17711,23454,6390,0,0,0
17974,23653,6778,0,0,0
18312,23904,7269,0,0,0
18719,24205,7857,0,0,0
19183,24554,8526,0,0,0
19699,24943,9269,0,0,0
20257,25363,10075,0,0,0
20834,25797,10916,0,0,0
21414,26235,11762,0,0,0
21988,26669,12602,0,0,0
22548,27090,13423,0,0,0
23081,27491,14204,0,0,0
23573,27866,14923,0,0,0
24019,28208,15575,0,0,0
24417,28506,16161,0,0,0
24767,28765,16679,0,0,0
25063,28992,17128,0,0,0
25309,29185,17504,0,0,0
25511,29337,17808,0,0,0
25668,29450,18041,0,0,0
25780,29531,18206,0,0,0
25847,29583,18315,0,0,0
25872,29605,18374,0,0,0
25853,29594,18379,0,0,0
25803,29557,18340,0,0,0
25737,29509,18276,0,0,0
25666,29456,18193,0,0,0
25586,29395,18092,0,0,0
25496,29328,17979,0,0,0
25401,29256,17860,0,0,0
25301,29175,17740,0,0,0
25202,29094,17621,0,0,0
25113,29023,17507,0,0,0
25034,28962,17400,0,0,0
24960,28906,17301,0,0,0
24887,28854,17207,0,0,0
24823,28814,17123,0,0,0
24772,28785,17057,0,0,0
24731,28764,17004,0,0,0
24692,28744,16955,0,0,0
24655,28721,16904,0,0,0
24620,28692,16852,0,0,0
24580,28657,16795,0,0,0
24529,28617,16727,0,0,0
24470,28575,16648,0,0,0
24409,28527,16558,0,0,0
24343,28472,16458,0,0,0
24268,28413,16346,0,0,0
24183,28351,16222,0,0,0
24093,28281,16092,0,0,0
24002,28209,15965,0,0,0
23914,28143,15838,0,0,0
23827,28084,15715,0,0,0
23743,28029,15605,0,0,0
23660,27969,15503,0,0,0
23583,27911,15405,0,0,0
23522,27868,15321,0,0,0
23479,27839,15256,0,0,0
23447,27817,15204,0,0,0
23420,27799,15158,0,0,0
23398,27786,15120,0,0,0
23383,27777,15091,0,0,0
23372,27770,15070,0,0,0
23363,27763,15050,0,0,0
23353,27754,15032,0,0,0
23345,27747,15022,0,0,0
23344,27745,15021,0,0,0
23350,27749,15020,0,0,0
23354,27755,15021,0,0,0
23348,27754,15017,0,0,0
23327,27744,14995,0,0,0
23291,27725,14951,0,0,0
23253,27700,14903,0,0,0
23218,27670,14857,0,0,0
23178,27637,14805,0,0,0
23128,27602,14742,0,0,0
23076,27568,14678,0,0,0
23025,27531,14612,0,0,0
22972,27491,14531,0,0,0
22915,27454,14441,0,0,0
22854,27414,14351,0,0,0
22785,27365,14256,0,0,0
22708,27309,14148,0,0,0
22621,27250,14028,0,0,0
22530,27184,13904,0,0,0
22436,27106,13775,0,0,0
22341,27022,13636,0,0,0
22253,26940,13490,0,0,0
22173,26865,13348,0,0,0
22095,26793,13214,0,0,0
22008,26721,13079,0,0,0
21914,26651,12936,0,0,0
21822,26582,12791,0,0,0
21729,26511,12645,0,0,0
21634,26444,12497,0,0,0
21537,26380,12350,0,0,0
21438,26314,12205,0,0,0
21336,26245,12063,0,0,0
21237,26178,11925,0,0,0
21148,26115,11799,0,0,0
21068,26056,11685,0,0,0
20995,25998,11574,0,0,0
20928,25944,11463,0,0,0
20868,25897,11358,0,0,0
20810,25854,11261,0,0,0
20747,25807,11165,0,0,0
20677,25755,11066,0,0,0
20608,25702,10966,0,0,0
20543,25647,10864,0,0,0
20482,25595,10762,0,0,0
20427,25550,10662,0,0,0
20374,25509,10568,0,0,0
20325,25471,10483,0,0,0
20282,25439,10403,0,0,0
20240,25409,10326,0,0,0
20196,25380,10258,0,0,0
20152,25351,10197,0,0,0
20112,25323,10137,0,0,0
20078,25298,10078,0,0,0
20051,25277,10024,0,0,0
20027,25257,9974,0,0,0
19999,25236,9924,0,0,0
19967,25215,9878,0,0,0
19935,25192,9835,0,0,0
19907,25167,9791,0,0,0
19884,25142,9742,0,0,0
19862,25117,9690,0,0,0
19837,25093,9637,0,0,0
19808,25069,9585,0,0,0
19778,25046,9534,0,0,0
19748,25027,9484,0,0,0
19716,25003,9438,0,0,0
19681,24974,9394,0,0,0
19645,24943,9347,0,0,0
19608,24915,9297,0,0,0
19574,24886,9248,0,0,0
19537,24854,9197,0,0,0
19498,24823,9141,0,0,0
19461,24800,9084,0,0,0
19432,24785,9034,0,0,0
19409,24771,8993,0,0,0
19386,24757,8950,0,0,0
19363,24740,8899,0,0,0
19341,24718,8841,0,0,0
19318,24692,8781,0,0,0
19293,24669,8720,0,0,0
19268,24648,8662,0,0,0
19242,24627,8610,0,0,0
19209,24605,8555,0,0,0
19171,24584,8493,0,0,0
19132,24563,8432,0,0,0
19095,24540,8376,0,0,0
19053,24515,8318,0,0,0
19007,24489,8254,0,0,0
18961,24459,8191,0,0,0
18919,24420,8131,0,0,0
18873,24376,8068,0,0,0
18819,24332,7999,0,0,0
18765,24283,7919,0,0,0
18711,24234,7831,0,0,0
18660,24188,7741,0,0,0
18611,24149,7654,0,0,0
18561,24113,7569,0,0,0
18504,24075,7484,0,0,0
18439,24032,7389,0,0,0
18371,23986,7291,0,0,0
18309,23941,7197,0,0,0
18255,23897,7108,0,0,0
18200,23856,7021,0,0,0
18140,23814,6933,0,0,0
18075,23767,6841,0,0,0
18007,23716,6743,0,0,0
17937,23664,6639,0,0,0
17863,23608,6527,0,0,0
17786,23545,6410,0,0,0
17704,23478,6288,0,0,0
17620,23416,6167,0,0,0
17541,23363,6053,0,0,0
17469,23316,5955,0,0,0
17405,23277,5869,0,0,0
17360,23249,5799,0,0,0
17349,23240,5762,0,0,0
17383,23262,5787,0,0,0
17471,23327,5890,0,0,0
17616,23440,6073,0,0,0
17825,23593,6346,0,0,0
18101,23786,6717,0,0,0
18440,24025,7185,0,0,0
18835,24314,7745,0,0,0
19278,24648,8388,0,0,0
19760,25020,9100,0,0,0
20272,25418,9866,0,0,0
20808,25832,10670,0,0,0
21364,26256,11497,0,0,0
21929,26680,12329,0,0,0
22478,27092,13142,0,0,0
22995,27485,13913,0,0,0
23481,27855,14632,0,0,0
23933,28191,15290,0,0,0
24337,28488,15877,0,0,0
24686,28750,16392,0,0,0
24981,28977,16839,0,0,0
25225,29164,17219,0,0,0
25422,29314,17526,0,0,0
25576,29430,17767,0,0,0
25683,29513,17946,0,0,0
25743,29565,18061,0,0,0
25764,29584,18112,0,0,0
25752,29576,18110,0,0,0
25712,29546,18074,0,0,0
25651,29502,18008,0,0,0
25569,29444,17910,0,0,0
25472,29380,17789,0,0,0
25370,29308,17658,0,0,0
25264,29229,17519,0,0,0
25154,29147,17370,0,0,0
25042,29064,17217,0,0,0
24934,28977,17070,0,0,0
24830,28891,16932,0,0,0
24735,28815,16800,0,0,0
24656,28753,16682,0,0,0
24592,28699,16585,0,0,0
24535,28651,16503,0,0,0
24476,28608,16422,0,0,0
24419,28570,16341,0,0,0
24371,28537,16271,0,0,0
24328,28499,16210,0,0,0
24284,28454,16145,0,0,0
24232,28406,16069,0,0,0
24177,28357,15983,0,0,0
24125,28311,15891,0,0,0
24072,28268,15794,0,0,0
24011,28221,15694,0,0,0
23942,28169,15593,0,0,0
23875,28119,15493,0,0,0
23815,28075,15402,0,0,0
23761,28039,15326,0,0,0
23715,28011,15266,0,0,0
23675,27988,15209,0,0,0
23641,27972,15153,0,0,0
23621,27964,15111,0,0,0
23618,27961,15088,0,0,0
23619,27961,15079,0,0,0
23620,27969,15084,0,0,0
23631,27987,15106,0,0,0
23653,28009,15145,0,0,0
23683,28035,15193,0,0,0
23721,28069,15250,0,0,0
23765,28106,15318,0,0,0
23809,28139,15393,0,0,0
23853,28168,15464,0,0,0
23898,28195,15525,0,0,0
23942,28219,15582,0,0,0
23980,28240,15639,0,0,0
24011,28257,15687,0,0,0
24036,28272,15721,0,0,0
24059,28282,15743,0,0,0
24074,28289,15752,0,0,0
24073,28292,15747,0,0,0
24062,28288,15728,0,0,0
24043,28270,15695,0,0,0
24014,28239,15645,0,0,0
23973,28201,15581,0,0,0
23924,28161,15505,0,0,0
23873,28115,15420,0,0,0
23813,28059,15322,0,0,0
23742,27998,15207,0,0,0
23663,27940,15080,0,0,0
23577,27877,14948,0,0,0
23483,27809,14815,0,0,0
23384,27739,14675,0,0,0
23286,27670,14532,0,0,0
23192,27600,14393,0,0,0
23102,27526,14255,0,0,0
23010,27451,14113,0,0,0
22914,27371,13967,0,0,0
22811,27287,13817,0,0,0
22702,27202,13660,0,0,0
22592,27121,13502,0,0,0
22486,27042,13349,0,0,0
22384,26965,13200,0,0,0
22284,26890,13050,0,0,0
22189,26818,12900,0,0,0
22100,26752,12760,0,0,0
22019,26693,12634,0,0,0
21938,26635,12513,0,0,0
21857,26578,12394,0,0,0
21785,26527,12283,0,0,0
21719,26481,12179,0,0,0
21653,26437,12079,0,0,0
21586,26394,11984,0,0,0
21519,26348,11894,0,0,0
21450,26296,11804,0,0,0
21382,26244,11709,0,0,0
21323,26197,11614,0,0,0
21271,26153,11526,0,0,0
21220,26109,11447,0,0,0
21170,26068,11375,0,0,0
21123,26033,11305,0,0,0
21077,26001,11236,0,0,0
21029,25966,11162,0,0,0
20979,25929,11082,0,0,0
20926,25893,11000,0,0,0
20874,25856,10921,0,0,0
20828,25818,10846,0,0,0
20781,25780,10771,0,0,0
20737,25744,10694,0,0,0
20698,25706,10618,0,0,0
20662,25670,10546,0,0,0
20627,25642,10481,0,0,0
20593,25617,10422,0,0,0
20558,25590,10371,0,0,0
20518,25561,10320,0,0,0
20477,25533,10268,0,0,0
20441,25512,10218,0,0,0
20412,25494,10176,0,0,0
20386,25476,10135,0,0,0
20360,25456,10088,0,0,0
20334,25437,10035,0,0,0
20310,25415,9979,0,0,0
20284,25388,9921,0,0,0
20254,25359,9867,0,0,0
20217,25330,9817,0,0,0
20174,25298,9769,0,0,0
20128,25266,9720,0,0,0
20084,25239,9669,0,0,0
20045,25213,9618,0,0,0
20005,25184,9562,0,0,0
19957,25152,9495,0,0,0
19901,25117,9418,0,0,0
19844,25078,9339,0,0,0
19792,25035,9260,0,0,0
19745,24996,9180,0,0,0
19701,24964,9101,0,0,0
19656,24932,9025,0,0,0
19610,24895,8952,0,0,0
19564,24859,8877,0,0,0
19517,24824,8801,0,0,0
19469,24788,8724,0,0,0
19421,24748,8646,0,0,0
19368,24707,8565,0,0,0
19312,24666,8484,0,0,0
19255,24624,8400,0,0,0
19196,24580,8310,0,0,0
19135,24534,8214,0,0,0
19076,24490,8120,0,0,0
19025,24449,8033,0,0,0
18977,24408,7947,0,0,0
18926,24366,7856,0,0,0
18872,24322,7759,0,0,0
18817,24276,7664,0,0,0
18760,24233,7575,0,0,0
18700,24192,7488,0,0,0
18638,24148,7399,0,0,0
18571,24098,7309,0,0,0
18497,24044,7208,0,0,0
18419,23989,7102,0,0,0
18353,23943,7002,0,0,0
18300,23908,6920,0,0,0
18259,23883,6863,0,0,0
18235,23875,6836,0,0,0
18245,23893,6857,0,0,0
18307,23943,6945,0,0,0
18430,24036,7116,0,0,0
18619,24182,7378,0,0,0
18875,24380,7740,0,0,0
19197,24626,8204,0,0,0
19581,24916,8759,0,0,0
20022,25251,9394,0,0,0
20519,25625,10105,0,0,0
21061,26029,10881,0,0,0
21629,26453,11693,0,0,0
22205,26885,12520,0,0,0
22780,27318,13346,0,0,0
23341,27737,14158,0,0,0
23877,28133,14944,0,0,0
24378,28507,15693,0,0,0
24833,28853,16392,0,0,0
25237,29165,17030,0,0,0
25591,29442,17594,0,0,0
25900,29683,18085,0,0,0
26164,29889,18506,0,0,0
26383,30059,18854,0,0,0
26554,30198,19126,0,0,0
26682,30304,19330,0,0,0
26771,30375,19481,0,0,0
26823,30410,19582,0,0,0
26840,30419,19634,0,0,0
26828,30411,19646,0,0,0
26793,30387,19625,0,0,0
26737,30349,19570,0,0,0
26664,30298,19486,0,0,0
26586,30240,19381,0,0,0
26505,30177,19268,0,0,0
26423,30112,19151,0,0,0
26342,30046,19031,0,0,0
26267,29983,18917,0,0,0
26200,29925,18816,0,0,0
26135,29873,18727,0,0,0
26071,29830,18645,0,0,0
26014,29793,18571,0,0,0
25970,29760,18505,0,0,0
25940,29729,18447,0,0,0
25919,29702,18395,0,0,0
25907,29683,18358,0,0,0
25898,29671,18338,0,0,0
25883,29657,18317,0,0,0
25858,29640,18286,0,0,0
25823,29617,18246,0,0,0
25780,29584,18195,0,0,0
25734,29542,18128,0,0,0
25689,29495,18047,0,0,0
25638,29446,17955,0,0,0
25580,29394,17857,0,0,0
25516,29341,17757,0,0,0
25452,29290,17658,0,0,0
25395,29243,17568,0,0,0
25347,29201,17487,0,0,0
25304,29161,17411,0,0,0
25268,29125,17341,0,0,0
25237,29095,17283,0,0,0
25210,29074,17238,0,0,0
25185,29061,17204,0,0,0
25164,29054,17181,0,0,0
25150,29047,17172,0,0,0
25141,29041,17169,0,0,0
25139,29039,17169,0,0,0
25148,29048,17179,0,0,0
25167,29065,17205,0,0,0
25186,29079,17236,0,0,0
25195,29092,17262,0,0,0
25203,29106,17282,0,0,0
25219,29120,17305,0,0,0
25237,29128,17325,0,0,0
25247,29129,17332,0,0,0
25250,29130,17323,0,0,0
25250,29131,17305,0,0,0
25244,29128,17278,0,0,0
25228,29118,17239,0,0,0
25200,29097,17189,0,0,0
25161,29066,17130,0,0,0
25113,29027,17057,0,0,0
25057,28980,16967,0,0,0
24997,28926,16868,0,0,0
24933,28864,16761,0,0,0
24855,28796,16642,0,0,0
24770,28728,16510,0,0,0
24689,28663,16378,0,0,0
24607,28597,16251,0,0,0
24518,28528,16118,0,0,0
24425,28460,15978,0,0,0
24329,28392,15836,0,0,0
24228,28318,15693,0,0,0
24126,28240,15548,0,0,0
24030,28165,15402,0,0,0
23936,28093,15263,0,0,0
23840,28019,15131,0,0,0
23743,27945,14998,0,0,0
23651,27876,14863,0,0,0
23568,27815,14730,0,0,0
23494,27757,14603,0,0,0
23425,27701,14483,0,0,0
23359,27650,14372,0,0,0
23295,27601,14269,0,0,0
23227,27552,14165,0,0,0
23156,27501,14056,0,0,0
23087,27450,13945,0,0,0
23021,27400,13841,0,0,0
22949,27345,13738,0,0,0
22868,27286,13627,0,0,0
22784,27222,13511,0,0,0
22704,27160,13401,0,0,0
22633,27105,13296,0,0,0
22565,27057,13195,0,0,0
22498,27010,13100,0,0,0
22433,26961,13011,0,0,0
22368,26908,12919,0,0,0
22303,26855,12823,0,0,0
22243,26807,12735,0,0,0
22184,26764,12656,0,0,0
22118,26724,12573,0,0,0
22049,26685,12485,0,0,0
21987,26646,12400,0,0,0
21937,26604,12320,0,0,0
21890,26564,12241,0,0,0
21843,26531,12162,0,0,0
21803,26502,12090,0,0,0
21772,26474,12030,0,0,0
21746,26449,11975,0,0,0
21715,26426,11915,0,0,0
21676,26397,11850,0,0,0
21630,26359,11785,0,0,0
21583,26315,11719,0,0,0
21537,26272,11648,0,0,0
21492,26232,11581,0,0,0
21444,26194,11516,0,0,0
21391,26157,11444,0,0,0
21337,26123,11367,0,0,0
21290,26088,11293,0,0,0
21248,26052,11224,0,0,0
21206,26015,11151,0,0,0
21161,25982,11071,0,0,0
21114,25951,10988,0,0,0
21061,25916,10903,0,0,0
21008,25877,10814,0,0,0
20960,25839,10729,0,0,0
20914,25799,10650,0,0,0
20866,25759,10573,0,0,0
20815,25723,10493,0,0,0
20761,25690,10413,0,0,0
20706,25655,10334,0,0,0
20652,25615,10256,0,0,0
20601,25575,10178,0,0,0
20552,25540,10108,0,0,0
20502,25506,10042,0,0,0
20444,25466,9971,0,0,0
20385,25421,9895,0,0,0
20329,25381,9822,0,0,0
20277,25344,9754,0,0,0
20225,25303,9684,0,0,0
20165,25260,9607,0,0,0
20106,25217,9526,0,0,0
20052,25175,9446,0,0,0
19995,25132,9362,0,0,0
19928,25087,9274,0,0,0
19859,25040,9181,0,0,0
19791,24988,9084,0,0,0
19726,24935,8982,0,0,0
19660,24886,8876,0,0,0
19591,24837,8766,0,0,0
19516,24785,8652,0,0,0
19438,24731,8535,0,0,0
19355,24678,8419,0,0,0
19266,24621,8304,0,0,0
19172,24558,8191,0,0,0
19079,24493,8077,0,0,0
18997,24432,7965,0,0,0
18924,24378,7859,0,0,0
18857,24328,7763,0,0,0
18795,24285,7677,0,0,0
18742,24252,7604,0,0,0
18711,24235,7560,0,0,0
18714,24238,7564,0,0,0
18757,24270,7628,0,0,0
18851,24342,7762,0,0,0
19007,24460,7981,0,0,0
19231,24628,8291,0,0,0
19518,24847,8696,0,0,0
19869,25117,9196,0,0,0
20281,25432,9789,0,0,0
20748,25785,10463,0,0,0
21260,26167,11200,0,0,0
21807,26573,11987,0,0,0
22374,26991,12808,0,0,0
22942,27412,13643,0,0,0
23503,27837,14473,0,0,0
24054,28261,15287,0,0,0
24586,28666,16070,0,0,0
25079,29043,16803,0,0,0
25522,29388,17472,0,0,0
25922,29699,18071,0,0,0
26278,29971,18607,0,0,0
26588,30206,19079,0,0,0
26845,30405,19481,0,0,0
27054,30570,19811,0,0,0
27222,30699,20072,0,0,0
27348,30796,20268,0,0,0
27435,30863,20405,0,0,0
27487,30902,20493,0,0,0
27509,30914,20542,0,0,0
27500,30908,20551,0,0,0
27463,30890,20524,0,0,0
27410,30863,20477,0,0,0
27346,30822,20419,0,0,0
27274,30774,20348,0,0,0
27204,30729,20268,0,0,0
27144,30691,20199,0,0,0
27091,30657,20148,0,0,0
27041,30623,20098,0,0,0
26999,30589,20048,0,0,0
26972,30559,20010,0,0,0
26958,30536,19991,0,0,0
26943,30518,19979,0,0,0
26926,30503,19969,0,0,0
26912,30491,19961,0,0,0
26903,30478,19956,0,0,0
26894,30469,19949,0,0,0
26885,30463,19934,0,0,0
26873,30453,19910,0,0,0
26850,30430,19871,0,0,0
26814,30397,19812,0,0,0
26770,30360,19736,0,0,0
26724,30319,19650,0,0,0
26671,30271,19555,0,0,0
26605,30216,19449,0,0,0
26526,30158,19333,0,0,0
26443,30100,19216,0,0,0
26357,30040,19097,0,0,0
26270,29979,18972,0,0,0
26188,29919,18849,0,0,0
26122,29864,18740,0,0,0
26070,29815,18650,0,0,0
26023,29771,18573,0,0,0
25979,29732,18507,0,0,0
25941,29699,18456,0,0,0
25915,29679,18419,0,0,0
25899,29671,18389,0,0,0
25887,29667,18364,0,0,0
25881,29665,18351,0,0,0
25880,29664,18348,0,0,0
25880,29665,18351,0,0,0
25883,29670,18359,0,0,0
25888,29678,18373,0,0,0
25887,29683,18385,0,0,0
25877,29680,18384,0,0,0
25871,29671,18377,0,0,0
25872,29661,18373,0,0,0
25869,29647,18363,0,0,0
25858,29630,18339,0,0,0
25839,29611,18304,0,0,0
25811,29587,18258,0,0,0
25771,29562,18198,0,0,0
25721,29531,18123,0,0,0
25662,29492,18039,0,0,0
25596,29446,17948,0,0,0
25529,29398,17853,0,0,0
25464,29350,17758,0,0,0
25397,29298,17664,0,0,0
25319,29240,17563,0,0,0
25233,29177,17450,0,0,0
25149,29115,17331,0,0,0
25072,29057,17217,0,0,0
24998,29001,17106,0,0,0
24923,28947,16993,0,0,0
24845,28893,16875,0,0,0
24770,28837,16756,0,0,0
24696,28780,16640,0,0,0
24619,28722,16527,0,0,0
24539,28663,16414,0,0,0
24455,28600,16305,0,0,0
24369,28536,16192,0,0,0
24285,28471,16068,0,0,0
24205,28410,15937,0,0,0
24128,28349,15811,0,0,0
24047,28282,15684,0,0,0
23963,28209,15550,0,0,0
23882,28138,15418,0,0,0
23806,28075,15298,0,0,0
23729,28016,15183,0,0,0
23650,27959,15069,0,0,0
23574,27903,14962,0,0,0
23505,27851,14863,0,0,0
23440,27802,14771,0,0,0
23376,27759,14685,0,0,0
23313,27720,14604,0,0,0
23257,27679,14527,0,0,0
23207,27638,14450,0,0,0
23158,27595,14372,0,0,0
23107,27548,14296,0,0,0
23052,27498,14217,0,0,0
22994,27451,14132,0,0,0
22941,27412,14044,0,0,0
22890,27376,13960,0,0,0
22837,27338,13879,0,0,0
22777,27293,13796,0,0,0
22712,27248,13708,0,0,0
22649,27206,13622,0,0,0
22587,27165,13539,0,0,0
22524,27123,13453,0,0,0
22459,27082,13362,0,0,0
22398,27040,13275,0,0,0
22343,26996,13192,0,0,0
22291,26953,13110,0,0,0
22242,26913,13029,0,0,0
22195,26875,12952,0,0,0
22146,26837,12880,0,0,0
22093,26799,12805,0,0,0
22043,26766,12730,0,0,0
22000,26735,12660,0,0,0
21959,26703,12592,0,0,0
21917,26669,12518,0,0,0
21874,26631,12440,0,0,0
21832,26593,12365,0,0,0
21788,26555,12293,0,0,0
21738,26515,12216,0,0,0
21681,26475,12132,0,0,0
21621,26431,12044,0,0,0
21564,26385,11956,0,0,0
21510,26341,11871,0,0,0
21454,26301,11789,0,0,0
21394,26261,11709,0,0,0
21331,26221,11624,0,0,0
21267,26181,11534,0,0,0
21207,26141,11446,0,0,0
21151,26100,11366,0,0,0
21092,26058,11287,0,0,0
21031,26018,11200,0,0,0
20973,25978,11112,0,0,0
20916,25934,11027,0,0,0
20856,25886,10938,0,0,0
20790,25840,10847,0,0,0
20720,25793,10756,0,0,0
20647,25741,10660,0,0,0
20572,25682,10556,0,0,0
20499,25625,10448,0,0,0
20434,25571,10344,0,0,0
20365,25511,10244,0,0,0
20287,25449,10138,0,0,0
20205,25391,10024,0,0,0
20121,25334,9908,0,0,0
20036,25273,9790,0,0,0
19950,25207,9668,0,0,0
19864,25140,9543,0,0,0
19780,25073,9420,0,0,0
19695,25003,9299,0,0,0
19603,24930,9170,0,0,0
19504,24858,9035,0,0,0
19406,24789,8902,0,0,0
19310,24724,8773,0,0,0
19218,24666,8653,0,0,0
19136,24616,8551,0,0,0
19069,24576,8478,0,0,0
19032,24555,8443,0,0,0
19038,24567,8462,0,0,0
19098,24625,8553,0,0,0
19219,24729,8730,0,0,0
19406,24880,8997,0,0,0
19660,25080,9358,0,0,0
19983,25329,9815,0,0,0
20370,25624,10364,0,0,0
20809,25955,10992,0,0,0
21292,26318,11688,0,0,0
21811,26707,12436,0,0,0
22352,27114,13223,0,0,0
22902,27534,14029,0,0,0
23451,27957,14836,0,0,0
23987,28368,15628,0,0,0
24502,28761,16394,0,0,0
24987,29132,17118,0,0,0
25433,29476,17781,0,0,0
25835,29783,18378,0,0,0
26191,30050,18910,0,0,0
26499,30278,19370,0,0,0
26757,30468,19755,0,0,0
26965,30620,20070,0,0,0
27124,30739,20322,0,0,0
27233,30827,20505,0,0,0
27298,30887,20623,0,0,0
27332,30920,20691,0,0,0
27338,30927,20719,0,0,0
27313,30907,20704,0,0,0
27259,30866,20654,0,0,0
27193,30813,20583,0,0,0
27127,30754,20500,0,0,0
27056,30691,20408,0,0,0
26977,30628,20309,0,0,0
26895,30565,20209,0,0,0
26813,30503,20108,0,0,0
26735,30440,20007,0,0,0
26667,30389,19914,0,0,0
26611,30351,19838,0,0,0
26565,30323,19777,0,0,0
26528,30302,19724,0,0,0
26499,30284,19677,0,0,0
26475,30270,19638,0,0,0
26455,30258,19606,0,0,0
26436,30245,19574,0,0,0
26412,30228,19538,0,0,0
26381,30200,19491,0,0,0
26343,30161,19426,0,0,0
26300,30115,19345,0,0,0
26252,30067,19255,0,0,0
26196,30013,19160,0,0,0
26128,29953,19055,0,0,0
26048,29890,18940,0,0,0
25963,29828,18823,0,0,0
25876,29765,18707,0,0,0
25786,29702,18588,0,0,0
25697,29643,18464,0,0,0
25614,29587,18346,0,0,0
25540,29529,18239,0,0,0
25472,29476,18144,0,0,0
25411,29435,18064,0,0,0
25358,29403,17997,0,0,0
25311,29375,17940,0,0,0
25272,29351,17892,0,0,0
25245,29336,17856,0,0,0
25223,29327,17837,0,0,0
25205,29323,17832,0,0,0
25194,29325,17833,0,0,0
25197,29333,17841,0,0,0
25212,29344,17860,0,0,0
25234,29353,17886,0,0,0
25253,29360,17908,0,0,0
25272,29366,17923,0,0,0
25292,29374,17937,0,0,0
25306,29381,17949,0,0,0
25308,29382,17951,0,0,0
25298,29379,17941,0,0,0
25281,29372,17926,0,0,0
25255,29357,17907,0,0,0
25217,29336,17873,0,0,0
25172,29309,17819,0,0,0
25124,29279,17751,0,0,0
25067,29242,17669,0,0,0
24998,29196,17571,0,0,0
24922,29144,17465,0,0,0
24846,29087,17354,0,0,0
24770,29027,17237,0,0,0
24689,28966,17112,0,0,0
24605,28901,16980,0,0,0
24516,28826,16846,0,0,0
24421,28745,16712,0,0,0
24322,28665,16578,0,0,0
24226,28589,16447,0,0,0
24136,28514,16321,0,0,0
24050,28440,16190,0,0,0
23965,28373,16050,0,0,0
23881,28309,15911,0,0,0
23796,28244,15781,0,0,0
23708,28177,15653,0,0,0
23614,28108,15519,0,0,0
23519,28040,15380,0,0,0
23426,27972,15247,0,0,0
23339,27906,15120,0,0,0
23255,27846,14999,0,0,0
23176,27793,14883,0,0,0
23100,27740,14773,0,0,0
23027,27686,14668,0,0,0
22952,27635,14565,0,0,0
22879,27586,14461,0,0,0
22806,27536,14355,0,0,0
22734,27485,14250,0,0,0
22665,27434,14149,0,0,0
22601,27382,14053,0,0,0
22539,27329,13962,0,0,0
22472,27278,13868,0,0,0
22408,27234,13776,0,0,0
22353,27195,13697,0,0,0
22305,27158,13631,0,0,0
22261,27122,13564,0,0,0
22220,27091,13497,0,0,0
22178,27061,13430,0,0,0
22128,27025,13359,0,0,0
22074,26988,13281,0,0,0
22022,26956,13202,0,0,0
21977,26926,13133,0,0,0
21935,26894,13071,0,0,0
21889,26863,13003,0,0,0
21842,26832,12932,0,0,0
21800,26796,12869,0,0,0
21762,26761,12811,0,0,0
21722,26728,12749,0,0,0
21683,26695,12688,0,0,0
21650,26663,12632,0,0,0
21620,26638,12576,0,0,0
21590,26616,12516,0,0,0
21556,26591,12456,0,0,0
21514,26564,12397,0,0,0
21469,26538,12334,0,0,0
21419,26513,12263,0,0,0
21368,26482,12194,0,0,0
21317,26445,12127,0,0,0
21266,26406,12055,0,0,0
21215,26367,11977,0,0,0
21165,26327,11902,0,0,0
21115,26286,11832,0,0,0
21060,26244,11759,0,0,0
21002,26202,11679,0,0,0
20953,26162,11603,0,0,0
20916,26124,11539,0,0,0
20880,26087,11477,0,0,0
20835,26051,11409,0,0,0
20786,26017,11336,0,0,0
20737,25983,11258,0,0,0
20685,25950,11173,0,0,0
20633,25916,11085,0,0,0
20584,25877,10998,0,0,0
20532,25831,10912,0,0,0
20478,25787,10824,0,0,0
20423,25748,10738,0,0,0
20364,25711,10657,0,0,0
20301,25668,10575,0,0,0
20229,25618,10481,0,0,0
20151,25563,10376,0,0,0
20074,25508,10266,0,0,0
19996,25451,10152,0,0,0
19914,25390,10032,0,0,0
19828,25325,9908,0,0,0
19739,25253,9780,0,0,0
19650,25178,9652,0,0,0
19565,25109,9531,0,0,0
19483,25043,9415,0,0,0
19401,24979,9304,0,0,0
19319,24915,9195,0,0,0
19241,24858,9091,0,0,0
19183,24817,9011,0,0,0
19159,24800,8972,0,0,0
19169,24813,8984,0,0,0
19219,24862,9057,0,0,0
19323,24952,9205,0,0,0
19490,25085,9437,0,0,0
19717,25265,9761,0,0,0
20007,25495,10180,0,0,0
20358,25772,10690,0,0,0
20767,26088,11282,0,0,0
21227,26439,11940,0,0,0
21726,26816,12648,0,0,0
22252,27211,13396,0,0,0
22792,27616,14174,0,0,0
23329,28019,14962,0,0,0
23852,28412,15739,0,0,0
24358,28795,16489,0,0,0
24834,29159,17201,0,0,0
25266,29494,17855,0,0,0
25653,29793,18446,0,0,0
25991,30049,18967,0,0,0
26276,30265,19411,0,0,0
26507,30446,19776,0,0,0
26689,30595,20065,0,0,0
26831,30710,20291,0,0,0
26931,30790,20457,0,0,0
26989,30834,20558,0,0,0
27008,30848,20601,0,0,0
26995,30840,20602,0,0,0
26957,30813,20563,0,0,0
26900,30772,20486,0,0,0
26827,30721,20382,0,0,0
26741,30658,20261,0,0,0
26646,30583,20127,0,0,0
26546,30504,19990,0,0,0
26452,30428,19861,0,0,0
26370,30355,19746,0,0,0
26297,30288,19641,0,0,0
26229,30230,19539,0,0,0
26167,30180,19447,0,0,0
26115,30136,19369,0,0,0
26065,30096,19298,0,0,0
26013,30060,19223,0,0,0
25961,30025,19144,0,0,0
25912,29990,19069,0,0,0
25864,29954,18997,0,0,0
25816,29915,18920,0,0,0
25765,29875,18836,0,0,0
25706,29830,18749,0,0,0
25640,29776,18651,0,0,0
25569,29715,18538,0,0,0
25498,29656,18423,0,0,0
25429,29599,18313,0,0,0
25361,29544,18205,0,0,0
25294,29490,18101,0,0,0
25236,29441,18010,0,0,0
25189,29398,17939,0,0,0
25150,29365,17883,0,0,0
25120,29347,17840,0,0,0
25102,29341,17811,0,0,0
25097,29340,17798,0,0,0
25100,29346,17797,0,0,0
25113,29358,17807,0,0,0
25135,29375,17836,0,0,0
25166,29394,17884,0,0,0
25199,29413,17934,0,0,0
25233,29437,17979,0,0,0
25272,29466,18026,0,0,0
25320,29495,18078,0,0,0
25368,29524,18130,0,0,0
25411,29556,18183,0,0,0
25449,29589,18238,0,0,0
25476,29614,18290,0,0,0
25490,29630,18329,0,0,0
25494,29639,18352,0,0,0
25487,29644,18362,0,0,0
25470,29638,18358,0,0,0
25438,29618,18334,0,0,0
25397,29588,18290,0,0,0
25359,29554,18232,0,0,0
25322,29517,18166,0,0,0
25278,29479,18088,0,0,0
25226,29438,18000,0,0,0
25170,29395,17909,0,0,0
25108,29348,17814,0,0,0
25040,29302,17710,0,0,0
24970,29255,17597,0,0,0
24898,29200,17483,0,0,0
24821,29134,17361,0,0,0
24739,29063,17223,0,0,0
24653,28988,17083,0,0,0
24566,28909,16951,0,0,0
24476,28827,16820,0,0,0
24381,28748,16688,0,0,0
24285,28676,16559,0,0,0
24189,28605,16429,0,0,0
24092,28531,16296,0,0,0
23992,28456,16161,0,0,0
23892,28381,16023,0,0,0
23793,28305,15881,0,0,0
23697,28232,15739,0,0,0
23609,28168,15602,0,0,0
23527,28108,15473,0,0,0
23447,28047,15350,0,0,0
23368,27985,15227,0,0,0
23294,27924,15109,0,0,0
23224,27865,15001,0,0,0
23155,27810,14904,0,0,0
23086,27764,14808,0,0,0
23026,27728,14716,0,0,0
22980,27696,14635,0,0,0
22940,27662,14563,0,0,0
22899,27630,14494,0,0,0
22856,27601,14426,0,0,0
22816,27572,14362,0,0,0
22778,27541,14303,0,0,0
22739,27506,14242,0,0,0
22694,27464,14175,0,0,0
22645,27420,14105,0,0,0
22594,27378,14032,0,0,0
22543,27339,13954,0,0,0
22492,27305,13880,0,0,0
22441,27271,13809,0,0,0
22389,27231,13735,0,0,0
22339,27189,13657,0,0,0
22293,27150,13582,0,0,0
22249,27114,13515,0,0,0
22201,27078,13452,0,0,0
22148,27046,13385,0,0,0
22094,27018,13316,0,0,0
22043,26992,13245,0,0,0
21998,26967,13176,0,0,0
21962,26948,13113,0,0,0
21934,26929,13059,0,0,0
21909,26907,13012,0,0,0
21883,26881,12966,0,0,0
21853,26854,12913,0,0,0
21820,26827,12858,0,0,0
21781,26797,12804,0,0,0
21737,26760,12744,0,0,0
21689,26721,12672,0,0,0
21643,26689,12601,0,0,0
21605,26662,12537,0,0,0
21569,26634,12471,0,0,0
21530,26603,12402,0,0,0
21487,26571,12332,0,0,0
21437,26533,12256,0,0,0
21383,26488,12169,0,0,0
21327,26438,12077,0,0,0
21265,26384,11989,0,0,0
21196,26330,11903,0,0,0
21124,26277,11813,0,0,0
21053,26225,11718,0,0,0
20985,26173,11626,0,0,0
20920,26118,11532,0,0,0
20855,26065,11433,0,0,0
20791,26018,11334,0,0,0
20730,25972,11242,0,0,0
20669,25924,11152,0,0,0
20602,25878,11060,0,0,0
20540,25838,10973,0,0,0
20488,25804,10895,0,0,0
20440,25768,10817,0,0,0
20389,25728,10730,0,0,0
20337,25681,10637,0,0,0
20287,25630,10547,0,0,0
20232,25579,10460,0,0,0
20169,25528,10372,0,0,0
20096,25475,10276,0,0,0
20016,25417,10169,0,0,0
19929,25356,10050,0,0,0
19841,25297,9924,0,0,0
19763,25242,9806,0,0,0
19702,25196,9710,0,0,0
19656,25162,9642,0,0,0
19635,25147,9616,0,0,0
19657,25168,9654,0,0,0
19735,25229,9773,0,0,0
19873,25335,9974,0,0,0
20074,25494,10260,0,0,0
20340,25704,10643,0,0,0
20669,25961,11124,0,0,0
21060,26264,11697,0,0,0
21507,26612,12355,0,0,0
22004,26998,13092,0,0,0
22540,27412,13896,0,0,0
23101,27843,14738,0,0,0
23676,28281,15591,0,0,0
24253,28718,16442,0,0,0
24818,29141,17275,0,0,0
25357,29546,18069,0,0,0
25859,29930,18808,0,0,0
26315,30282,19489,0,0,0
26720,30594,20102,0,0,0
27071,30863,20634,0,0,0
27368,31093,21081,0,0,0
27614,31283,21456,0,0,0
27805,31427,21760,0,0,0
27942,31526,21988,0,0,0
28030,31588,22144,0,0,0
28078,31621,22239,0,0,0
28095,31631,22287,0,0,0
28085,31618,22294,0,0,0
28054,31587,22265,0,0,0
28006,31542,22211,0,0,0
27947,31484,22133,0,0,0
27882,31424,22032,0,0,0
27816,31366,21922,0,0,0
27742,31310,21815,0,0,0
27659,31253,21711,0,0,0
27577,31196,21607,0,0,0
27505,31143,21509,0,0,0
27441,31094,21420,0,0,0
27378,31050,21340,0,0,0
27315,31010,21267,0,0,0
27257,30974,21201,0,0,0
27213,30942,21147,0,0,0
27178,30918,21102,0,0,0
27147,30903,21059,0,0,0
27113,30886,21011,0,0,0
27075,30856,20959,0,0,0
27034,30819,20897,0,0,0
26991,30781,20819,0,0,0
26944,30741,20731,0,0,0
26890,30697,20639,0,0,0
26826,30648,20540,0,0,0
26753,30593,20435,0,0,0
26677,30537,20328,0,0,0
26601,30480,20224,0,0,0
26521,30423,20118,0,0,0
26442,30364,20006,0,0,0
26371,30308,19894,0,0,0
26306,30254,19789,0,0,0
26250,30208,19698,0,0,0
26205,30174,19623,0,0,0
26170,30146,19567,0,0,0
26141,30120,19525,0,0,0
26120,30097,19493,0,0,0
26109,30084,19478,0,0,0
26105,30078,19480,0,0,0
26105,30079,19493,0,0,0
26109,30088,19505,0,0,0
26120,30105,19517,0,0,0
26143,30126,19539,0,0,0
26173,30148,19571,0,0,0
26197,30168,19600,0,0,0
26211,30179,19618,0,0,0
26218,30180,19626,0,0,0
26217,30172,19624,0,0,0
26206,30160,19610,0,0,0
26186,30142,19589,0,0,0
26162,30118,19567,0,0,0
26133,30092,19538,0,0,0
26094,30066,19494,0,0,0
26045,30037,19437,0,0,0
25986,30001,19368,0,0,0
25922,29955,19288,0,0,0
25859,29907,19196,0,0,0
25794,29859,19097,0,0,0
25725,29807,18994,0,0,0
25649,29751,18877,0,0,0
25572,29692,18744,0,0,0
25496,29630,18609,0,0,0
25422,29568,18478,0,0,0
25345,29507,18350,0,0,0
25265,29445,18221,0,0,0
25186,29380,18094,0,0,0
25105,29309,17968,0,0,0
25016,29236,17837,0,0,0
24925,29163,17704,0,0,0
24834,29091,17573,0,0,0
24737,29015,17442,0,0,0
24634,28936,17307,0,0,0
24531,28861,17172,0,0,0
24433,28789,17042,0,0,0
24339,28720,16915,0,0,0
24246,28653,16785,0,0,0
24157,28590,16656,0,0,0
24072,28529,16531,0,0,0
23988,28469,16407,0,0,0
23902,28406,16281,0,0,0
23814,28342,16160,0,0,0
23728,28279,16047,0,0,0
23641,28216,15934,0,0,0
23555,28149,15817,0,0,0
23475,28085,15701,0,0,0
23401,28026,15593,0,0,0
23330,27968,15493,0,0,0
23258,27914,15395,0,0,0
23190,27866,15300,0,0,0
23129,27822,15210,0,0,0
23073,27781,15125,0,0,0
23022,27740,15039,0,0,0
22976,27702,14957,0,0,0
22933,27669,14881,0,0,0
22893,27638,14810,0,0,0
22851,27610,14740,0,0,0
22810,27583,14669,0,0,0
22769,27552,14600,0,0,0
22720,27512,14527,0,0,0
22662,27471,14447,0,0,0
22606,27433,14373,0,0,0
22555,27398,14308,0,0,0
22500,27361,14239,0,0,0
22440,27320,14159,0,0,0
22381,27277,14074,0,0,0
22320,27231,13991,0,0,0
22255,27187,13911,0,0,0
22191,27149,13835,0,0,0
22128,27113,13764,0,0,0
22067,27076,13693,0,0,0
22008,27039,13616,0,0,0
21948,27003,13535,0,0,0
21889,26966,13457,0,0,0
21836,26930,13384,0,0,0
21783,26892,13309,0,0,0
21731,26855,13231,0,0,0
21685,26818,13153,0,0,0
21641,26776,13077,0,0,0
21593,26730,12996,0,0,0
21542,26683,12909,0,0,0
21490,26636,12825,0,0,0
21436,26587,12748,0,0,0
21378,26539,12671,0,0,0
21317,26490,12589,0,0,0
21253,26438,12500,0,0,0
21187,26383,12406,0,0,0
21119,26326,12305,0,0,0
21055,26273,12201,0,0,0
20992,26224,12101,0,0,0
20926,26179,12003,0,0,0
20853,26132,11902,0,0,0
20780,26083,11803,0,0,0
20709,26033,11713,0,0,0
20640,25985,11627,0,0,0
20574,25941,11542,0,0,0
20511,25899,11463,0,0,0
20450,25857,11386,0,0,0
20389,25811,11301,0,0,0
20327,25764,11207,0,0,0
20271,25720,11114,0,0,0
20221,25683,11033,0,0,0
20172,25653,10958,0,0,0
20124,25626,10883,0,0,0
20078,25600,10805,0,0,0
20028,25567,10722,0,0,0
19972,25527,10629,0,0,0
19914,25482,10523,0,0,0
19853,25431,10410,0,0,0
19783,25373,10296,0,0,0
19703,25313,10179,0,0,0
19612,25249,10058,0,0,0
19519,25184,9937,0,0,0
19430,25120,9821,0,0,0
19348,25060,9712,0,0,0
19279,25011,9622,0,0,0
19228,24979,9562,0,0,0
19207,24969,9548,0,0,0
19228,24992,9594,0,0,0
19301,25056,9713,0,0,0
19435,25167,9919,0,0,0
19632,25325,10218,0,0,0
19896,25536,10616,0,0,0
20234,25798,11114,0,0,0
20644,26110,11712,0,0,0
21111,26467,12401,0,0,0
21628,26864,13164,0,0,0
22188,27293,13992,0,0,0
22773,27740,14869,0,0,0
23369,28191,15768,0,0,0
23971,28643,16662,0,0,0
24568,29088,17539,0,0,0
25139,29515,18383,0,0,0
25668,29910,19176,0,0,0
26147,30269,19900,0,0,0
26574,30592,20548,0,0,0
26944,30873,21119,0,0,0
27259,31115,21608,0,0,0
27518,31320,22010,0,0,0
27723,31481,22327,0,0,0
27873,31597,22565,0,0,0
27972,31678,22727,0,0,0
28031,31729,22824,0,0,0
28057,31755,22873,0,0,0
28050,31758,22883,0,0,0
28009,31734,22853,0,0,0
27940,31688,22787,0,0,0
27859,31632,22700,0,0,0
27772,31568,22599,0,0,0
27678,31495,22485,0,0,0
27585,31422,22364,0,0,0
27495,31352,22249,0,0,0
27411,31283,22145,0,0,0
27340,31223,22054,0,0,0
27287,31180,21976,0,0,0
27252,31151,21916,0,0,0
27225,31132,21874,0,0,0
27201,31123,21843,0,0,0
27183,31121,21821,0,0,0
27171,31124,21814,0,0,0
27163,31130,21815,0,0,0
27157,31133,21810,0,0,0
27151,31130,21797,0,0,0
27143,31122,21775,0,0,0
27127,31107,21741,0,0,0
27101,31085,21695,0,0,0
27066,31058,21640,0,0,0
27020,31024,21577,0,0,0
26960,30976,21498,0,0,0
26883,30913,21394,0,0,0
26794,30843,21271,0,0,0
26705,30769,21143,0,0,0
26619,30695,21014,0,0,0
26533,30626,20885,0,0,0
26446,30559,20758,0,0,0
26361,30489,20643,0,0,0
26277,30421,20537,0,0,0
26203,30364,20434,0,0,0
26143,30318,20341,0,0,0
26092,30276,20259,0,0,0
26044,30235,20182,0,0,0
25998,30198,20109,0,0,0
25962,30166,20048,0,0,0
25937,30138,20001,0,0,0
25916,30115,19963,0,0,0
25898,30099,19930,0,0,0
25884,30089,19905,0,0,0
25870,30081,19892,0,0,0
25856,30075,19883,0,0,0
25844,30071,19873,0,0,0
25835,30067,19870,0,0,0
25826,30064,19871,0,0,0
25815,30058,19863,0,0,0
25796,30047,19845,0,0,0
25770,30030,19819,0,0,0
25740,30008,19784,0,0,0
25702,29982,19734,0,0,0
25661,29953,19669,0,0,0
25611,29916,19591,0,0,0
25547,29867,19501,0,0,0
25472,29811,19395,0,0,0
25388,29749,19272,0,0,0
25299,29680,19140,0,0,0
25205,29605,19003,0,0,0
25104,29529,18854,0,0,0
24995,29447,18694,0,0,0
24879,29359,18529,0,0,0
24759,29266,18362,0,0,0
24635,29174,18190,0,0,0
24511,29083,18020,0,0,0
24392,28993,17852,0,0,0
24275,28899,17684,0,0,0
24159,28805,17517,0,0,0
24047,28716,17351,0,0,0
23942,28633,17193,0,0,0
23843,28555,17046,0,0,0
23745,28482,16901,0,0,0
23648,28413,16759,0,0,0
23553,28350,16626,0,0,0
23457,28290,16500,0,0,0
23365,28238,16381,0,0,0
23279,28191,16273,0,0,0
23196,28143,16174,0,0,0
23114,28093,16076,0,0,0
23037,28043,15977,0,0,0
22967,27994,15875,0,0,0
22901,27942,15772,0,0,0
22837,27886,15671,0,0,0
22776,27832,15573,0,0,0
22716,27778,15481,0,0,0
22654,27723,15393,0,0,0
22587,27670,15302,0,0,0
22516,27619,15204,0,0,0
22448,27571,15106,0,0,0
22388,27524,15011,0,0,0
22327,27474,14914,0,0,0
22261,27420,14809,0,0,0
22194,27366,14707,0,0,0
22132,27314,14613,0,0,0
22073,27269,14526,0,0,0
22014,27230,14443,0,0,0
21956,27192,14364,0,0,0
21898,27149,14286,0,0,0
21839,27107,14207,0,0,0
21782,27074,14133,0,0,0
21733,27046,14065,0,0,0
21689,27016,13999,0,0,0
21645,26981,13928,0,0,0
21598,26948,13852,0,0,0
21551,26919,13774,0,0,0
21500,26887,13695,0,0,0
21443,26847,13611,0,0,0
21382,26801,13524,0,0,0
21315,26748,13437,0,0,0
21243,26690,13347,0,0,0
21171,26632,13254,0,0,0
21104,26579,13164,0,0,0
21038,26531,13080,0,0,0
20966,26487,12995,0,0,0
20892,26441,12902,0,0,0
20822,26390,12805,0,0,0
20756,26337,12709,0,0,0
20692,26286,12614,0,0,0
20624,26236,12515,0,0,0
20548,26184,12411,0,0,0
20465,26128,12302,0,0,0
20382,26070,12188,0,0,0
20302,26013,12069,0,0,0
20222,25957,11952,0,0,0
20138,25899,11839,0,0,0
20050,25838,11725,0,0,0
19966,25779,11606,0,0,0
19890,25727,11492,0,0,0
19821,25680,11381,0,0,0
19750,25633,11272,0,0,0
19678,25585,11168,0,0,0
19614,25540,11079,0,0,0
19559,25499,10998,0,0,0
19505,25458,10919,0,0,0
19451,25416,10841,0,0,0
19399,25374,10763,0,0,0
19346,25331,10683,0,0,0
19293,25288,10599,0,0,0
19242,25250,10514,0,0,0
19191,25213,10430,0,0,0
19131,25170,10344,0,0,0
19060,25120,10251,0,0,0
18986,25072,10153,0,0,0
18914,25029,10051,0,0,0
18842,24983,9944,0,0,0
18768,24933,9828,0,0,0
18688,24876,9709,0,0,0
18606,24814,9589,0,0,0
18519,24747,9467,0,0,0
18425,24680,9341,0,0,0
18327,24615,9214,0,0,0
18229,24552,9091,0,0,0
18134,24493,8977,0,0,0
18048,24442,8874,0,0,0
17985,24405,8792,0,0,0
17950,24382,8743,0,0,0
17948,24382,8740,0,0,0
17984,24415,8799,0,0,0
18069,24487,8935,0,0,0
18216,24603,9162,0,0,0
18434,24771,9490,0,0,0
18727,24993,9922,0,0,0
19090,25270,10461,0,0,0
19516,25594,11096,0,0,0
19997,25958,11810,0,0,0
20525,26356,12585,0,0,0
21092,26785,13414,0,0,0
21686,27234,14282,0,0,0
22285,27685,15162,0,0,0
22870,28125,16031,0,0,0
23433,28550,16875,0,0,0
23968,28956,17680,0,0,0
24463,29330,18420,0,0,0
24910,29667,19084,0,0,0
25303,29963,19668,0,0,0
25633,30212,20168,0,0,0
25900,30419,20576,0,0,0
26117,30588,20902,0,0,0
26288,30717,21159,0,0,0
26409,30805,21348,0,0,0
26476,30855,21463,0,0,0
26497,30872,21511,0,0,0
26482,30863,21509,0,0,0
26434,30830,21464,0,0,0
26363,30775,21381,0,0,0
26279,30708,21273,0,0,0
26186,30640,21155,0,0,0
26084,30570,21027,0,0,0
25978,30498,20887,0,0,0
25875,30427,20747,0,0,0
25782,30361,20619,0,0,0
25703,30301,20505,0,0,0
25631,30247,20396,0,0,0
25567,30199,20297,0,0,0
25513,30154,20217,0,0,0
25468,30115,20155,0,0,0
25430,30085,20103,0,0,0
25399,30060,20057,0,0,0
25371,30035,20018,0,0,0
25342,30009,19981,0,0,0
25312,29985,19939,0,0,0
25283,29961,19894,0,0,0
25249,29934,19841,0,0,0
25198,29897,19768,0,0,0
25131,29847,19667,0,0,0
25059,29791,19551,0,0,0
24983,29730,19430,0,0,0
24891,29660,19299,0,0,0
24784,29586,19157,0,0,0
24672,29508,19010,0,0,0
24562,29424,18864,0,0,0
24452,29341,18724,0,0,0
24346,29266,18590,0,0,0
24251,29199,18464,0,0,0
24164,29133,18347,0,0,0
24085,29072,18240,0,0,0
24014,29025,18142,0,0,0
23954,28988,18062,0,0,0
23909,28958,18006,0,0,0
23877,28934,17964,0,0,0
23857,28921,17930,0,0,0
23850,28919,17912,0,0,0
23853,28921,17909,0,0,0
23860,28925,17918,0,0,0
23873,28935,17939,0,0,0
23892,28951,17971,0,0,0
23913,28967,18006,0,0,0
23933,28982,18035,0,0,0
23952,29002,18059,0,0,0
23968,29024,18079,0,0,0
23974,29036,18087,0,0,0
23967,29033,18074,0,0,0
23950,29020,18044,0,0,0
23927,29001,18005,0,0,0
23897,28971,17951,0,0,0
23853,28932,17876,0,0,0
23795,28886,17788,0,0,0
23729,28833,17693,0,0,0
23652,28767,17585,0,0,0
23563,28696,17463,0,0,0
23467,28626,17335,0,0,0
23370,28558,17207,0,0,0
23269,28488,17076,0,0,0
23167,28418,16939,0,0,0
23070,28348,16801,0,0,0
22979,28278,16666,0,0,0
22888,28209,16528,0,0,0
22795,28146,16384,0,0,0
22702,28082,16239,0,0,0
22610,28013,16098,0,0,0
22518,27941,15955,0,0,0
22421,27869,15808,0,0,0
22317,27798,15663,0,0,0
22213,27729,15528,0,0,0
22111,27660,15392,0,0,0
22010,27588,15249,0,0,0
21919,27518,15109,0,0,0
21836,27449,14978,0,0,0
21754,27382,14852,0,0,0
21675,27318,14729,0,0,0
21601,27253,14610,0,0,0
21527,27185,14494,0,0,0
21454,27121,14380,0,0,0
21385,27061,14271,0,0,0
21316,27002,14171,0,0,0
21246,26942,14078,0,0,0
21181,26891,13989,0,0,0
21122,26850,13907,0,0,0
21070,26818,13835,0,0,0
21021,26791,13769,0,0,0
20969,26762,13699,0,0,0
20915,26731,13627,0,0,0
20866,26698,13565,0,0,0
20825,26667,13511,0,0,0
20787,26639,13456,0,0,0
20748,26616,13399,0,0,0
20709,26592,13344,0,0,0
20671,26562,13287,0,0,0
20632,26532,13221,0,0,0
20591,26502,13151,0,0,0
20552,26471,13084,0,0,0
20512,26440,13020,0,0,0
20467,26410,12954,0,0,0
20417,26380,12882,0,0,0
20365,26348,12811,0,0,0
20314,26315,12739,0,0,0
20264,26278,12668,0,0,0
20220,26242,12605,0,0,0
20177,26206,12549,0,0,0
20131,26165,12484,0,0,0
20081,26122,12410,0,0,0
20036,26084,12337,0,0,0
19994,26051,12268,0,0,0
19948,26017,12195,0,0,0
19900,25985,12121,0,0,0
19855,25956,12053,0,0,0
19809,25923,11985,0,0,0
19760,25888,11910,0,0,0
19715,25854,11832,0,0,0
19673,25818,11752,0,0,0
19624,25775,11672,0,0,0
19568,25727,11590,0,0,0
19510,25680,11506,0,0,0
19455,25638,11423,0,0,0
19400,25600,11342,0,0,0
19339,25560,11255,0,0,0
19270,25518,11167,0,0,0
19198,25474,11081,0,0,0
19124,25427,10993,0,0,0
19047,25375,10895,0,0,0
18972,25325,10794,0,0,0
18902,25273,10696,0,0,0
18829,25215,10600,0,0,0
18753,25158,10498,0,0,0
18681,25106,10391,0,0,0
18613,25056,10282,0,0,0
18544,25007,10172,0,0,0
18474,24958,10059,0,0,0
18404,24910,9945,0,0,0
18338,24860,9838,0,0,0
18270,24806,9734,0,0,0
18198,24747,9630,0,0,0
18127,24686,9525,0,0,0
18056,24626,9419,0,0,0
17985,24570,9318,0,0,0
17913,24520,9221,0,0,0
17838,24471,9126,0,0,0
17759,24419,9028,0,0,0
17679,24368,8926,0,0,0
17606,24322,8825,0,0,0
17545,24284,8733,0,0,0
17492,24251,8655,0,0,0
17446,24221,8591,0,0,0
17417,24203,8553,0,0,0
17420,24209,8560,0,0,0
17471,24248,8627,0,0,0
17578,24324,8768,0,0,0
17746,24447,9000,0,0,0
17980,24622,9336,0,0,0
18281,24850,9781,0,0,0
18650,25133,10333,0,0,0
19086,25466,10983,0,0,0
19580,25841,11717,0,0,0
20123,26250,12515,0,0,0
20698,26680,13351,0,0,0
21290,27122,14205,0,0,0
21885,27569,15065,0,0,0
22464,28007,15912,0,0,0
23012,28424,16720,0,0,0
23519,28815,17473,0,0,0
23978,29170,18163,0,0,0
24382,29480,18777,0,0,0
24724,29739,19301,0,0,0
25004,29952,19741,0,0,0
25231,30120,20104,0,0,0
25404,30247,20386,0,0,0
25526,30336,20590,0,0,0
25604,30393,20729,0,0,0
25641,30419,20810,0,0,0
25641,30416,20835,0,0,0
25606,30388,20806,0,0,0
25546,30342,20735,0,0,0
25469,30284,20638,0,0,0
25380,30216,20520,0,0,0
25272,30135,20378,0,0,0
25150,30044,20218,0,0,0
25026,29949,20052,0,0,0
24910,29860,19889,0,0,0
24800,29781,19733,0,0,0
24692,29708,19585,0,0,0
24590,29638,19454,0,0,0
24495,29570,19335,0,0,0
24405,29509,19225,0,0,0
24333,29459,19127,0,0,0
24277,29418,19043,0,0,0
24222,29380,18963,0,0,0
24164,29343,18884,0,0,0
24109,29306,18808,0,0,0
24052,29265,18733,0,0,0
23992,29219,18646,0,0,0
23928,29170,18545,0,0,0
23859,29115,18432,0,0,0
23781,29048,18309,0,0,0
23691,28969,18170,0,0,0
23590,28885,18019,0,0,0
23486,28808,17873,0,0,0
23384,28737,17732,0,0,0
23287,28669,17592,0,0,0
23194,28606,17456,0,0,0
23116,28547,17335,0,0,0
23055,28494,17234,0,0,0
23007,28452,17152,0,0,0
22971,28420,17088,0,0,0
22946,28393,17044,0,0,0
22933,28374,17015,0,0,0
22930,28369,16998,0,0,0
22936,28375,16996,0,0,0
22949,28386,17015,0,0,0
22968,28402,17049,0,0,0
22989,28419,17086,0,0,0
23013,28436,17124,0,0,0
23036,28452,17165,0,0,0
23059,28467,17202,0,0,0
23077,28483,17226,0,0,0
23087,28495,17237,0,0,0
23085,28497,17240,0,0,0
23071,28490,17232,0,0,0
23045,28479,17209,0,0,0
23014,28467,17177,0,0,0
22981,28446,17136,0,0,0
22935,28411,17077,0,0,0
22874,28364,16996,0,0,0
22808,28312,16902,0,0,0
22738,28256,16805,0,0,0
22659,28197,16697,0,0,0
22570,28132,16574,0,0,0
22477,28060,16443,0,0,0
22381,27983,16303,0,0,0
22284,27902,16155,0,0,0
22184,27823,16004,0,0,0
22082,27744,15850,0,0,0
21974,27663,15693,0,0,0
21861,27581,15533,0,0,0
21747,27500,15376,0,0,0
21640,27421,15225,0,0,0
21538,27343,15077,0,0,0
21431,27260,14917,0,0,0
21320,27174,14748,0,0,0
21216,27090,14581,0,0,0
21116,27010,14421,0,0,0
21013,26934,14266,0,0,0
20913,26864,14118,0,0,0
20817,26796,13978,0,0,0
20721,26725,13845,0,0,0
20625,26655,13712,0,0,0
20530,26591,13583,0,0,0
20440,26533,13463,0,0,0
20354,26472,13351,0,0,0
20272,26409,13241,0,0,0
20193,26350,13133,0,0,0
20119,26298,13037,0,0,0
20054,26249,12948,0,0,0
19997,26200,12858,0,0,0
19946,26152,12768,0,0,0
19902,26108,12682,0,0,0
19863,26068,12600,0,0,0
19824,26034,12517,0,0,0
19779,26002,12438,0,0,0
19724,25966,12363,0,0,0
19659,25923,12284,0,0,0
19592,25878,12201,0,0,0
19529,25839,12123,0,0,0
19475,25806,12051,0,0,0
19424,25773,11978,0,0,0
19367,25738,11902,0,0,0
19309,25705,11826,0,0,0
19254,25672,11753,0,0,0
19199,25633,11675,0,0,0
19146,25587,11591,0,0,0
19094,25536,11508,0,0,0
19042,25482,11428,0,0,0
18988,25432,11346,0,0,0
18931,25388,11260,0,0,0
18870,25345,11174,0,0,0
18806,25300,11093,0,0,0
18742,25258,11018,0,0,0
18682,25222,10941,0,0,0
18625,25186,10862,0,0,0
18569,25144,10783,0,0,0
18511,25100,10700,0,0,0
18454,25060,10615,0,0,0
18399,25018,10531,0,0,0
18339,24968,10447,0,0,0
18272,24917,10357,0,0,0
18206,24871,10258,0,0,0
18145,24827,10155,0,0,0
18079,24776,10051,0,0,0
18001,24718,9943,0,0,0
17918,24660,9833,0,0,0
17841,24605,9730,0,0,0
17772,24555,9637,0,0,0
17701,24505,9553,0,0,0
17625,24454,9472,0,0,0
17547,24402,9386,0,0,0
17468,24350,9293,0,0,0
17390,24301,9197,0,0,0
17315,24254,9100,0,0,0
17247,24208,9003,0,0,0
17184,24163,8900,0,0,0
17124,24116,8794,0,0,0
17067,24070,8692,0,0,0
17012,24025,8600,0,0,0
16952,23978,8511,0,0,0
16885,23929,8415,0,0,0
16818,23884,8316,0,0,0
16756,23841,8221,0,0,0
16690,23798,8123,0,0,0
16620,23754,8022,0,0,0
16552,23710,7920,0,0,0
16489,23663,7817,0,0,0
16425,23612,7713,0,0,0
16360,23562,7607,0,0,0
16290,23511,7497,0,0,0
16217,23454,7385,0,0,0
16145,23397,7269,0,0,0
16070,23342,7149,0,0,0
15990,23286,7025,0,0,0
15900,23225,6901,0,0,0
15804,23161,6778,0,0,0
15707,23096,6656,0,0,0
15612,23033,6536,0,0,0
15520,22973,6423,0,0,0
15430,22914,6315,0,0,0
15345,22864,6213,0,0,0
15276,22828,6131,0,0,0
15228,22802,6076,0,0,0
15208,22793,6055,0,0,0
15226,22812,6086,0,0,0
15297,22868,6192,0,0,0
15430,22965,6388,0,0,0
15629,23109,6679,0,0,0
15897,23305,7077,0,0,0
16240,23557,7584,0,0,0
16656,23861,8193,0,0,0
17138,24215,8895,0,0,0
17678,24611,9679,0,0,0
18258,25036,10526,0,0,0
18859,25476,11413,0,0,0
19468,25924,12317,0,0,0
20078,26373,13226,0,0,0
20679,26817,14123,0,0,0
21254,27242,14983,0,0,0
21785,27637,15782,0,0,0
22271,28001,16508,0,0,0
22710,28330,17159,0,0,0
23098,28619,17729,0,0,0
23426,28866,18215,0,0,0
23693,29070,18619,0,0,0
23904,29233,18948,0,0,0
24062,29355,19205,0,0,0
24170,29442,19390,0,0,0
24232,29499,19508,0,0,0
24257,29525,19570,0,0,0
24250,29523,19581,0,0,0
24216,29498,19543,0,0,0
24167,29457,19473,0,0,0
24107,29407,19386,0,0,0
24030,29350,19278,0,0,0
23938,29284,19151,0,0,0
23844,29216,19023,0,0,0
23754,29147,18899,0,0,0
23667,29079,18777,0,0,0
23588,29018,18663,0,0,0
23522,28965,18564,0,0,0
23466,28914,18479,0,0,0
23422,28873,18412,0,0,0
23392,28848,18366,0,0,0
23371,28834,18340,0,0,0
23349,28823,18321,0,0,0
23325,28809,18300,0,0,0
23303,28793,18277,0,0,0
23284,28777,18256,0,0,0
23265,28760,18234,0,0,0
23234,28735,18195,0,0,0
23191,28705,18138,0,0,0
23139,28668,18068,0,0,0
23081,28621,17987,0,0,0
23015,28568,17893,0,0,0
22943,28514,17789,0,0,0
22862,28458,17680,0,0,0
22774,28395,17562,0,0,0
22682,28326,17433,0,0,0
22592,28261,17300,0,0,0
22509,28205,17175,0,0,0
22429,28152,17054,0,0,0
22347,28098,16937,0,0,0
22267,28047,16829,0,0,0
22198,28003,16737,0,0,0
22143,27966,16662,0,0,0
22096,27934,16599,0,0,0
22057,27904,16546,0,0,0
22028,27879,16506,0,0,0
22011,27856,16474,0,0,0
22001,27836,16444,0,0,0
21999,27819,16423,0,0,0
22002,27804,16414,0,0,0
22002,27789,16408,0,0,0
21996,27779,16403,0,0,0
21993,27775,16399,0,0,0
21995,27773,16398,0,0,0
21990,27771,16391,0,0,0
21974,27768,16373,0,0,0
21958,27766,16352,0,0,0
21941,27761,16334,0,0,0
21916,27747,16307,0,0,0
21884,27723,16263,0,0,0
21848,27689,16205,0,0,0
21804,27649,16134,0,0,0
21749,27604,16049,0,0,0
21685,27556,15956,0,0,0
21614,27501,15854,0,0,0
21530,27436,15740,0,0,0
21434,27363,15610,0,0,0
21327,27287,15467,0,0,0
21217,27216,15323,0,0,0
21107,27145,15181,0,0,0
20999,27069,15033,0,0,0
20893,26991,14879,0,0,0
20789,26911,14723,0,0,0
20686,26828,14564,0,0,0
20582,26749,14403,0,0,0
20479,26678,14247,0,0,0
20376,26606,14097,0,0,0
20275,26531,13946,0,0,0
20179,26459,13797,0,0,0
20093,26396,13661,0,0,0
20016,26341,13539,0,0,0
19942,26288,13425,0,0,0
19866,26234,13310,0,0,0
19791,26182,13196,0,0,0
19716,26127,13087,0,0,0
19637,26064,12979,0,0,0
19553,26000,12870,0,0,0
19467,25937,12760,0,0,0
19379,25870,12650,0,0,0
19291,25803,12538,0,0,0
19205,25740,12421,0,0,0
19122,25679,12305,0,0,0
19046,25622,12198,0,0,0
18975,25570,12094,0,0,0
18905,25517,11983,0,0,0
18836,25461,11875,0,0,0
18766,25405,11770,0,0,0
18690,25348,11660,0,0,0
18610,25293,11549,0,0,0
18534,25241,11448,0,0,0
18464,25190,11356,0,0,0
18401,25145,11270,0,0,0
18347,25108,11191,0,0,0
18303,25074,11118,0,0,0
18264,25041,11052,0,0,0
18224,25010,10986,0,0,0
18182,24981,10916,0,0,0
18140,24953,10847,0,0,0
18094,24920,10780,0,0,0
18039,24884,10706,0,0,0
17978,24845,10626,0,0,0
17920,24803,10548,0,0,0
17864,24759,10467,0,0,0
17803,24714,10378,0,0,0
17740,24670,10286,0,0,0
17680,24623,10194,0,0,0
17619,24570,10102,0,0,0
17552,24516,10003,0,0,0
17482,24464,9899,0,0,0
17407,24412,9795,0,0,0
17326,24355,9691,0,0,0
17242,24296,9588,0,0,0
17161,24240,9492,0,0,0
17088,24188,9400,0,0,0
17018,24138,9306,0,0,0
16944,24086,9206,0,0,0
16870,24036,9105,0,0,0
16801,23988,9008,0,0,0
16737,23945,8914,0,0,0
16674,23904,8816,0,0,0
16613,23863,8720,0,0,0
16555,23821,8632,0,0,0
16496,23778,8547,0,0,0
16431,23733,8457,0,0,0
16363,23686,8365,0,0,0
16295,23637,8273,0,0,0
16223,23584,8175,0,0,0
16147,23528,8073,0,0,0
16077,23476,7973,0,0,0
16012,23427,7877,0,0,0
15942,23377,7778,0,0,0
15864,23325,7673,0,0,0
15784,23271,7564,0,0,0
15705,23215,7456,0,0,0
15620,23158,7347,0,0,0
15532,23102,7241,0,0,0
15448,23048,7142,0,0,0
15368,22994,7042,0,0,0
15294,22942,6933,0,0,0
15224,22892,6817,0,0,0
15154,22843,6702,0,0,0
15082,22793,6589,0,0,0
15005,22741,6475,0,0,0
14921,22686,6359,0,0,0
14838,22626,6241,0,0,0
14757,22564,6121,0,0,0
14680,22504,5999,0,0,0
14605,22446,5876,0,0,0
14531,22388,5755,0,0,0
14450,22329,5634,0,0,0
14363,22268,5508,0,0,0
14275,22208,5383,0,0,0
14192,22152,5266,0,0,0
14114,22099,5160,0,0,0
14040,22049,5066,0,0,0
13978,22008,4987,0,0,0
13940,21982,4942,0,0,0
13940,21983,4946,0,0,0
13988,22017,5011,0,0,0
14089,22087,5147,0,0,0
14252,22200,5372,0,0,0
14480,22365,5694,0,0,0
14777,22584,6121,0,0,0
15143,22855,6656,0,0,0
15574,23171,7296,0,0,0
16054,23523,8021,0,0,0
16573,23907,8811,0,0,0
17131,24320,9650,0,0,0
17719,24754,10522,0,0,0
18315,25192,11405,0,0,0
18908,25626,12275,0,0,0
19489,26046,13119,0,0,0
20043,26446,13922,0,0,0
20553,26823,14664,0,0,0
21017,27172,15339,0,0,0
21428,27481,15945,0,0,0
21775,27741,16468,0,0,0
22059,27957,16898,0,0,0
22286,28134,17240,0,0,0
22459,28269,17504,0,0,0
22577,28363,17692,0,0,0
22651,28418,17812,0,0,0
22690,28443,17872,0,0,0
22693,28436,17879,0,0,0
22660,28402,17839,0,0,0
22598,28347,17759,0,0,0
22515,28280,17652,0,0,0
22419,28207,17532,0,0,0
22318,28131,17406,0,0,0
22215,28057,17275,0,0,0
22114,27990,17143,0,0,0
22020,27931,17019,0,0,0
21936,27874,16908,0,0,0
21860,27824,16810,0,0,0
21795,27781,16728,0,0,0
21744,27742,16664,0,0,0
21699,27705,16612,0,0,0
21664,27676,16566,0,0,0
21642,27658,16533,0,0,0
21631,27648,16510,0,0,0
21623,27638,16488,0,0,0
21611,27624,16456,0,0,0
21593,27606,16417,0,0,0
21573,27583,16374,0,0,0
21541,27553,16324,0,0,0
21489,27517,16261,0,0,0
21424,27472,16183,0,0,0
21347,27412,16089,0,0,0
21259,27342,15972,0,0,0
21165,27271,15837,0,0,0
21069,27201,15692,0,0,0
20970,27130,15544,0,0,0
20872,27058,15392,0,0,0
20776,26985,15240,0,0,0
20683,26916,15100,0,0,0
